Created as New Dataset,Sample 2529 By Analyst Date Thursday, December 19 2024
nm,INT
375.0,1601
375.1,1569
375.2,1530
375.3,1495
375.4,1465
375.5,1442
375.6,1422
375.7,1403
375.8,1389
375.9,1377
376.0,1367
376.1,1359
376.2,1353
376.3,1348
376.4,1345
376.5,1343
376.6,1342
376.7,1342
376.8,1342
376.9,1343
377.0,1343
377.1,1344
377.2,1345
377.3,1345
377.4,1345
377.5,1346
377.6,1346
377.7,1346
377.8,1346
377.9,1345
378.0,1345
378.1,1345
378.2,1344
378.3,1344
378.4,1343
378.5,1343
378.6,1342
378.7,1341
378.8,1340
378.9,1339
379.0,1337
379.1,1336
379.2,1334
379.3,1331
379.4,1328
379.5,1324
379.6,1321
379.7,1317
379.8,1312
379.9,1307
380.0,1301
380.1,1296
380.2,1290
380.3,1284
380.4,1278
380.5,1271
380.6,1265
380.7,1259
380.8,1253
380.9,1247
381.0,1241
381.1,1236
381.2,1232
381.3,1227
381.4,1222
381.5,1218
381.6,1214
381.7,1210
381.8,1206
381.9,1202
382.0,1198
382.1,1193
382.2,1189
382.3,1185
382.4,1180
382.5,1176
382.6,1171
382.7,1166
382.8,1162
382.9,1158
383.0,1154
383.1,1150
383.2,1146
383.3,1143
383.4,1139
383.5,1136
383.6,1134
383.7,1131
383.8,1130
383.9,1128
384.0,1128
384.1,1127
384.2,1127
384.3,1128
384.4,1129
384.5,1131
384.6,1132
384.7,1134
384.8,1136
384.9,1139
385.0,1142
385.1,1146
385.2,1150
385.3,1154
385.4,1159
385.5,1164
385.6,1170
385.7,1175
385.8,1181
385.9,1188
386.0,1194
386.1,1200
386.2,1206
386.3,1213
386.4,1220
386.5,1226
386.6,1233
386.7,1240
386.8,1247
386.9,1254
387.0,1262
387.1,1271
387.2,1279
387.3,1287
387.4,1295
387.5,1303
387.6,1311
387.7,1319
387.8,1326
387.9,1332
388.0,1339
388.1,1345
388.2,1350
388.3,1355
388.4,1360
388.5,1365
388.6,1369
388.7,1374
388.8,1378
388.9,1381
389.0,1385
389.1,1388
389.2,1391
389.3,1393
389.4,1395
389.5,1397
389.6,1399
389.7,1400
389.8,1400
389.9,1400
390.0,1399
390.1,1398
390.2,1397
390.3,1395
390.4,1392
390.5,1389
390.6,1385
390.7,1382
390.8,1378
390.9,1373
391.0,1369
391.1,1365
391.2,1362
391.3,1358
391.4,1355
391.5,1351
391.6,1348
391.7,1344
391.8,1341
391.9,1337
392.0,1333
392.1,1329
392.2,1325
392.3,1320
392.4,1315
392.5,1310
392.6,1305
392.7,1300
392.8,1295
392.9,1290
393.0,1286
393.1,1281
393.2,1277
393.3,1273
393.4,1269
393.5,1265
393.6,1262
393.7,1259
393.8,1256
393.9,1254
394.0,1253
394.1,1251
394.2,1250
394.3,1250
394.4,1250
394.5,1250
394.6,1251
394.7,1253
394.8,1255
394.9,1257
395.0,1260
395.1,1263
395.2,1268
395.3,1273
395.4,1278
395.5,1285
395.6,1293
395.7,1301
395.8,1310
395.9,1320
396.0,1330
396.1,1341
396.2,1353
396.3,1365
396.4,1376
396.5,1389
396.6,1402
396.7,1415
396.8,1428
396.9,1443
397.0,1459
397.1,1475
397.2,1492
397.3,1510
397.4,1529
397.5,1547
397.6,1568
397.7,1591
397.8,1612
397.9,1633
398.0,1656
398.1,1678
398.2,1700
398.3,1723
398.4,1745
398.5,1766
398.6,1789
398.7,1811
398.8,1832
398.9,1852
399.0,1873
399.1,1893
399.2,1911
399.3,1930
399.4,1950
399.5,1970
399.6,1989
399.7,2009
399.8,2029
399.9,2049
400.0,2069
400.1,2090
400.2,2112
400.3,2132
400.4,2152
400.5,2172
400.6,2192
400.7,2209
400.8,2226
400.9,2243
401.0,2258
401.1,2274
401.2,2289
401.3,2303
401.4,2316
401.5,2329
401.6,2343
401.7,2355
401.8,2368
401.9,2381
402.0,2393
402.1,2405
402.2,2418
402.3,2431
402.4,2443
402.5,2456
402.6,2469
402.7,2483
402.8,2496
402.9,2511
403.0,2526
403.1,2540
403.2,2554
403.3,2570
403.4,2584
403.5,2599
403.6,2615
403.7,2630
403.8,2645
403.9,2662
404.0,2679
404.1,2696
404.2,2713
404.3,2732
404.4,2751
404.5,2769
404.6,2787
404.7,2806
404.8,2823
404.9,2841
405.0,2858
405.1,2874
405.2,2890
405.3,2904
405.4,2920
405.5,2935
405.6,2951
405.7,2967
405.8,2983
405.9,3000
406.0,3016
406.1,3033
406.2,3050
406.3,3067
406.4,3084
406.5,3100
406.6,3116
406.7,3131
406.8,3146
406.9,3160
407.0,3172
407.1,3185
407.2,3196
407.3,3207
407.4,3218
407.5,3226
407.6,3233
407.7,3239
407.8,3245
407.9,3250
408.0,3254
408.1,3258
408.2,3263
408.3,3267
408.4,3272
408.5,3277
408.6,3283
408.7,3290
408.8,3298
408.9,3305
409.0,3313
409.1,3321
409.2,3328
409.3,3335
409.4,3341
409.5,3346
409.6,3350
409.7,3353
409.8,3355
409.9,3357
410.0,3359
410.1,3361
410.2,3363
410.3,3364
410.4,3366
410.5,3368
410.6,3370
410.7,3372
410.8,3374
410.9,3375
411.0,3377
411.1,3378
411.2,3380
411.3,3381
411.4,3382
411.5,3383
411.6,3384
411.7,3384
411.8,3383
411.9,3382
412.0,3381
412.1,3380
412.2,3378
412.3,3375
412.4,3371
412.5,3366
412.6,3361
412.7,3356
412.8,3350
412.9,3344
413.0,3336
413.1,3329
413.2,3320
413.3,3311
413.4,3301
413.5,3291
413.6,3280
413.7,3269
413.8,3257
413.9,3243
414.0,3229
414.1,3215
414.2,3200
414.3,3185
414.4,3168
414.5,3152
414.6,3136
414.7,3120
414.8,3105
414.9,3089
415.0,3075
415.1,3062
415.2,3050
415.3,3037
415.4,3026
415.5,3015
415.6,3004
415.7,2995
415.8,2984
415.9,2974
416.0,2963
416.1,2953
416.2,2943
416.3,2932
416.4,2922
416.5,2912
416.6,2902
416.7,2894
416.8,2886
416.9,2880
417.0,2874
417.1,2869
417.2,2865
417.3,2861
417.4,2859
417.5,2857
417.6,2856
417.7,2856
417.8,2856
417.9,2857
418.0,2858
418.1,2860
418.2,2862
418.3,2866
418.4,2869
418.5,2873
418.6,2876
418.7,2879
418.8,2881
418.9,2883
419.0,2886
419.1,2889
419.2,2891
419.3,2894
419.4,2896
419.5,2899
419.6,2903
419.7,2907
419.8,2912
419.9,2919
420.0,2925
420.1,2932
420.2,2939
420.3,2945
420.4,2951
420.5,2958
420.6,2966
420.7,2973
420.8,2980
420.9,2989
421.0,2997
421.1,3007
421.2,3016
421.3,3026
421.4,3037
421.5,3049
421.6,3061
421.7,3073
421.8,3085
421.9,3098
422.0,3111
422.1,3123
422.2,3135
422.3,3149
422.4,3161
422.5,3174
422.6,3187
422.7,3199
422.8,3211
422.9,3221
423.0,3232
423.1,3242
423.2,3252
423.3,3261
423.4,3269
423.5,3278
423.6,3286
423.7,3294
423.8,3302
423.9,3310
424.0,3319
424.1,3328
424.2,3335
424.3,3343
424.4,3350
424.5,3358
424.6,3365
424.7,3371
424.8,3378
424.9,3383
425.0,3388
425.1,3392
425.2,3395
425.3,3398
425.4,3400
425.5,3401
425.6,3402
425.7,3400
425.8,3398
425.9,3394
426.0,3390
426.1,3385
426.2,3378
426.3,3372
426.4,3365
426.5,3358
426.6,3351
426.7,3342
426.8,3334
426.9,3325
427.0,3316
427.1,3307
427.2,3297
427.3,3288
427.4,3277
427.5,3267
427.6,3257
427.7,3246
427.8,3236
427.9,3227
428.0,3218
428.1,3210
428.2,3202
428.3,3193
428.4,3185
428.5,3177
428.6,3169
428.7,3160
428.8,3152
428.9,3145
429.0,3137
429.1,3128
429.2,3120
429.3,3112
429.4,3106
429.5,3100
429.6,3094
429.7,3089
429.8,3084
429.9,3080
430.0,3076
430.1,3072
430.2,3069
430.3,3067
430.4,3065
430.5,3064
430.6,3064
430.7,3064
430.8,3065
430.9,3067
431.0,3070
431.1,3072
431.2,3075
431.3,3079
431.4,3083
431.5,3087
431.6,3090
431.7,3094
431.8,3098
431.9,3101
432.0,3105
432.1,3109
432.2,3112
432.3,3116
432.4,3120
432.5,3124
432.6,3128
432.7,3132
432.8,3137
432.9,3142
433.0,3148
433.1,3153
433.2,3159
433.3,3165
433.4,3172
433.5,3179
433.6,3186
433.7,3193
433.8,3199
433.9,3205
434.0,3211
434.1,3216
434.2,3221
434.3,3226
434.4,3231
434.5,3235
434.6,3238
434.7,3241
434.8,3244
434.9,3247
435.0,3250
435.1,3252
435.2,3255
435.3,3256
435.4,3258
435.5,3259
435.6,3258
435.7,3258
435.8,3256
435.9,3254
436.0,3252
436.1,3248
436.2,3245
436.3,3239
436.4,3233
436.5,3226
436.6,3219
436.7,3211
436.8,3201
436.9,3191
437.0,3180
437.1,3170
437.2,3159
437.3,3149
437.4,3138
437.5,3128
437.6,3118
437.7,3110
437.8,3101
437.9,3092
438.0,3083
438.1,3075
438.2,3067
438.3,3060
438.4,3052
438.5,3044
438.6,3036
438.7,3029
438.8,3022
438.9,3015
439.0,3010
439.1,3005
439.2,3000
439.3,2997
439.4,2994
439.5,2992
439.6,2990
439.7,2988
439.8,2987
439.9,2987
440.0,2985
440.1,2984
440.2,2983
440.3,2983
440.4,2982
440.5,2980
440.6,2978
440.7,2976
440.8,2973
440.9,2972
441.0,2970
441.1,2967
441.2,2964
441.3,2961
441.4,2960
441.5,2960
441.6,2959
441.7,2959
441.8,2960
441.9,2961
442.0,2964
442.1,2967
442.2,2970
442.3,2972
442.4,2974
442.5,2976
442.6,2979
442.7,2982
442.8,2984
442.9,2986
443.0,2988
443.1,2991
443.2,2994
443.3,2996
443.4,2999
443.5,3002
443.6,3006
443.7,3011
443.8,3016
443.9,3021
444.0,3026
444.1,3031
444.2,3038
444.3,3046
444.4,3053
444.5,3060
444.6,3066
444.7,3072
444.8,3080
444.9,3087
445.0,3093
445.1,3098
445.2,3104
445.3,3110
445.4,3116
445.5,3120
445.6,3124
445.7,3128
445.8,3133
445.9,3138
446.0,3142
446.1,3145
446.2,3149
446.3,3151
446.4,3153
446.5,3154
446.6,3153
446.7,3150
446.8,3147
446.9,3143
447.0,3138
447.1,3130
447.2,3121
447.3,3111
447.4,3101
447.5,3091
447.6,3080
447.7,3067
447.8,3053
447.9,3038
448.0,3024
448.1,3010
448.2,2995
448.3,2978
448.4,2960
448.5,2943
448.6,2926
448.7,2909
448.8,2890
448.9,2871
449.0,2851
449.1,2832
449.2,2813
449.3,2794
449.4,2772
449.5,2750
449.6,2730
449.7,2711
449.8,2690
449.9,2668
450.0,2646
450.1,2625
450.2,2605
450.3,2587
450.4,2570
450.5,2552
450.6,2537
450.7,2522
450.8,2511
450.9,2501
451.0,2491
451.1,2483
451.2,2477
451.3,2475
451.4,2475
451.5,2475
451.6,2477
451.7,2481
451.8,2486
451.9,2494
452.0,2504
452.1,2514
452.2,2526
452.3,2538
452.4,2551
452.5,2564
452.6,2577
452.7,2590
452.8,2604
452.9,2618
453.0,2633
453.1,2648
453.2,2662
453.3,2678
453.4,2693
453.5,2710
453.6,2726
453.7,2743
453.8,2760
453.9,2777
454.0,2794
454.1,2811
454.2,2828
454.3,2844
454.4,2861
454.5,2877
454.6,2892
454.7,2908
454.8,2924
454.9,2938
455.0,2952
455.1,2966
455.2,2979
455.3,2992
455.4,3004
455.5,3014
455.6,3024
455.7,3032
455.8,3040
455.9,3047
456.0,3052
456.1,3056
456.2,3058
456.3,3061
456.4,3062
456.5,3062
456.6,3060
456.7,3059
456.8,3056
456.9,3054
457.0,3052
457.1,3048
457.2,3044
457.3,3040
457.4,3038
457.5,3035
457.6,3032
457.7,3029
457.8,3025
457.9,3021
458.0,3017
458.1,3013
458.2,3008
458.3,3001
458.4,2994
458.5,2986
458.6,2978
458.7,2971
458.8,2962
458.9,2953
459.0,2945
459.1,2938
459.2,2932
459.3,2927
459.4,2922
459.5,2918
459.6,2915
459.7,2913
459.8,2913
459.9,2913
460.0,2915
460.1,2917
460.2,2921
460.3,2926
460.4,2930
460.5,2935
460.6,2942
460.7,2949
460.8,2957
460.9,2965
461.0,2974
461.1,2983
461.2,2992
461.3,3003
461.4,3013
461.5,3024
461.6,3037
461.7,3050
461.8,3063
461.9,3076
462.0,3089
462.1,3102
462.2,3115
462.3,3128
462.4,3141
462.5,3153
462.6,3164
462.7,3175
462.8,3186
462.9,3196
463.0,3207
463.1,3217
463.2,3227
463.3,3238
463.4,3250
463.5,3262
463.6,3274
463.7,3287
463.8,3299
463.9,3312
464.0,3326
464.1,3339
464.2,3351
464.3,3363
464.4,3375
464.5,3387
464.6,3398
464.7,3408
464.8,3418
464.9,3428
465.0,3438
465.1,3448
465.2,3457
465.3,3467
465.4,3476
465.5,3488
465.6,3499
465.7,3510
465.8,3521
465.9,3533
466.0,3545
466.1,3558
466.2,3570
466.3,3582
466.4,3594
466.5,3605
466.6,3616
466.7,3628
466.8,3639
466.9,3650
467.0,3661
467.1,3671
467.2,3680
467.3,3689
467.4,3698
467.5,3707
467.6,3715
467.7,3723
467.8,3730
467.9,3737
468.0,3743
468.1,3751
468.2,3758
468.3,3765
468.4,3771
468.5,3777
468.6,3783
468.7,3788
468.8,3792
468.9,3795
469.0,3797
469.1,3797
469.2,3797
469.3,3797
469.4,3797
469.5,3797
469.6,3796
469.7,3793
469.8,3793
469.9,3792
470.0,3792
470.1,3790
470.2,3789
470.3,3788
470.4,3787
470.5,3785
470.6,3783
470.7,3781
470.8,3778
470.9,3776
471.0,3774
471.1,3772
471.2,3769
471.3,3767
471.4,3765
471.5,3765
471.6,3763
471.7,3762
471.8,3759
471.9,3757
472.0,3756
472.1,3756
472.2,3756
472.3,3755
472.4,3754
472.5,3755
472.6,3757
472.7,3760
472.8,3762
472.9,3765
473.0,3769
473.1,3774
473.2,3777
473.3,3781
473.4,3784
473.5,3786
473.6,3790
473.7,3793
473.8,3796
473.9,3796
474.0,3797
474.1,3798
474.2,3799
474.3,3799
474.4,3798
474.5,3796
474.6,3792
474.7,3789
474.8,3785
474.9,3780
475.0,3775
475.1,3767
475.2,3759
475.3,3751
475.4,3743
475.5,3735
475.6,3725
475.7,3713
475.8,3702
475.9,3691
476.0,3680
476.1,3669
476.2,3656
476.3,3641
476.4,3629
476.5,3616
476.6,3604
476.7,3592
476.8,3579
476.9,3568
477.0,3558
477.1,3549
477.2,3541
477.3,3534
477.4,3527
477.5,3523
477.6,3521
477.7,3521
477.8,3520
477.9,3520
478.0,3523
478.1,3527
478.2,3532
478.3,3536
478.4,3542
478.5,3550
478.6,3559
478.7,3568
478.8,3579
478.9,3589
479.0,3600
479.1,3615
479.2,3630
479.3,3646
479.4,3659
479.5,3674
479.6,3691
479.7,3709
479.8,3727
479.9,3745
480.0,3761
480.1,3777
480.2,3795
480.3,3812
480.4,3828
480.5,3845
480.6,3859
480.7,3872
480.8,3887
480.9,3900
481.0,3911
481.1,3919
481.2,3926
481.3,3934
481.4,3942
481.5,3948
481.6,3953
481.7,3956
481.8,3959
481.9,3963
482.0,3966
482.1,3969
482.2,3972
482.3,3973
482.4,3974
482.5,3975
482.6,3976
482.7,3976
482.8,3974
482.9,3973
483.0,3972
483.1,3973
483.2,3974
483.3,3974
483.4,3975
483.5,3977
483.6,3980
483.7,3984
483.8,3989
483.9,3994
484.0,3998
484.1,4005
484.2,4012
484.3,4020
484.4,4027
484.5,4035
484.6,4044
484.7,4055
484.8,4068
484.9,4082
485.0,4095
485.1,4108
485.2,4123
485.3,4140
485.4,4158
485.5,4176
485.6,4193
485.7,4210
485.8,4229
485.9,4249
486.0,4271
486.1,4292
486.2,4314
486.3,4337
486.4,4363
486.5,4390
486.6,4418
486.7,4444
486.8,4469
486.9,4497
487.0,4526
487.1,4554
487.2,4580
487.3,4604
487.4,4628
487.5,4652
487.6,4675
487.7,4698
487.8,4719
487.9,4739
488.0,4759
488.1,4780
488.2,4800
488.3,4818
488.4,4836
488.5,4853
488.6,4871
488.7,4888
488.8,4904
488.9,4919
489.0,4935
489.1,4950
489.2,4965
489.3,4981
489.4,4996
489.5,5011
489.6,5027
489.7,5044
489.8,5060
489.9,5074
490.0,5088
490.1,5103
490.2,5116
490.3,5130
490.4,5142
490.5,5153
490.6,5164
490.7,5174
490.8,5184
490.9,5195
491.0,5206
491.1,5217
491.2,5227
491.3,5237
491.4,5249
491.5,5261
491.6,5271
491.7,5281
491.8,5291
491.9,5301
492.0,5311
492.1,5321
492.2,5330
492.3,5339
492.4,5349
492.5,5360
492.6,5371
492.7,5382
492.8,5394
492.9,5406
493.0,5417
493.1,5429
493.2,5441
493.3,5452
493.4,5462
493.5,5473
493.6,5483
493.7,5494
493.8,5504
493.9,5515
494.0,5526
494.1,5537
494.2,5548
494.3,5560
494.4,5571
494.5,5583
494.6,5595
494.7,5607
494.8,5619
494.9,5631
495.0,5643
495.1,5657
495.2,5670
495.3,5686
495.4,5703
495.5,5722
495.6,5742
495.7,5763
495.8,5782
495.9,5804
496.0,5825
496.1,5846
496.2,5868
496.3,5890
496.4,5909
496.5,5929
496.6,5948
496.7,5967
496.8,5986
496.9,6005
497.0,6025
497.1,6045
497.2,6066
497.3,6087
497.4,6109
497.5,6129
497.6,6151
497.7,6173
497.8,6195
497.9,6217
498.0,6239
498.1,6261
498.2,6283
498.3,6304
498.4,6326
498.5,6347
498.6,6367
498.7,6388
498.8,6408
498.9,6428
499.0,6447
499.1,6465
499.2,6482
499.3,6499
499.4,6517
499.5,6536
499.6,6554
499.7,6571
499.8,6589
499.9,6607
500.0,6626
500.1,6645
500.2,6665
500.3,6682
500.4,6700
500.5,6718
500.6,6735
500.7,6752
500.8,6769
500.9,6785
501.0,6801
501.1,6819
501.2,6836
501.3,6854
501.4,6871
501.5,6890
501.6,6910
501.7,6930
501.8,6951
501.9,6972
502.0,6992
502.1,7011
502.2,7032
502.3,7052
502.4,7072
502.5,7090
502.6,7108
502.7,7127
502.8,7144
502.9,7161
503.0,7178
503.1,7193
503.2,7208
503.3,7225
503.4,7242
503.5,7259
503.6,7277
503.7,7294
503.8,7312
503.9,7330
504.0,7350
504.1,7371
504.2,7390
504.3,7410
504.4,7430
504.5,7449
504.6,7466
504.7,7481
504.8,7496
504.9,7510
505.0,7523
505.1,7535
505.2,7545
505.3,7555
505.4,7565
505.5,7576
505.6,7587
505.7,7599
505.8,7612
505.9,7625
506.0,7638
506.1,7650
506.2,7663
506.3,7676
506.4,7688
506.5,7699
506.6,7710
506.7,7720
506.8,7729
506.9,7738
507.0,7746
507.1,7753
507.2,7759
507.3,7764
507.4,7769
507.5,7773
507.6,7777
507.7,7781
507.8,7783
507.9,7785
508.0,7787
508.1,7790
508.2,7794
508.3,7798
508.4,7802
508.5,7806
508.6,7809
508.7,7813
508.8,7817
508.9,7820
509.0,7821
509.1,7820
509.2,7819
509.3,7817
509.4,7815
509.5,7811
509.6,7808
509.7,7804
509.8,7802
509.9,7800
510.0,7797
510.1,7795
510.2,7794
510.3,7795
510.4,7795
510.5,7795
510.6,7795
510.7,7794
510.8,7795
510.9,7796
511.0,7798
511.1,7800
511.2,7803
511.3,7806
511.4,7811
511.5,7817
511.6,7824
511.7,7831
511.8,7839
511.9,7848
512.0,7858
512.1,7869
512.2,7881
512.3,7893
512.4,7906
512.5,7920
512.6,7936
512.7,7954
512.8,7970
512.9,7988
513.0,8007
513.1,8028
513.2,8047
513.3,8066
513.4,8083
513.5,8102
513.6,8121
513.7,8141
513.8,8161
513.9,8179
514.0,8197
514.1,8217
514.2,8239
514.3,8263
514.4,8288
514.5,8313
514.6,8337
514.7,8363
514.8,8392
514.9,8421
515.0,8450
515.1,8478
515.2,8505
515.3,8529
515.4,8554
515.5,8579
515.6,8602
515.7,8623
515.8,8642
515.9,8660
516.0,8676
516.1,8691
516.2,8705
516.3,8718
516.4,8730
516.5,8743
516.6,8755
516.7,8766
516.8,8778
516.9,8789
517.0,8801
517.1,8815
517.2,8830
517.3,8844
517.4,8858
517.5,8873
517.6,8890
517.7,8907
517.8,8921
517.9,8934
518.0,8948
518.1,8964
518.2,8978
518.3,8990
518.4,9001
518.5,9011
518.6,9021
518.7,9032
518.8,9045
518.9,9056
519.0,9069
519.1,9081
519.2,9094
519.3,9109
519.4,9126
519.5,9142
519.6,9158
519.7,9172
519.8,9188
519.9,9204
520.0,9218
520.1,9232
520.2,9247
520.3,9261
520.4,9277
520.5,9294
520.6,9309
520.7,9324
520.8,9340
520.9,9358
521.0,9376
521.1,9392
521.2,9408
521.3,9425
521.4,9441
521.5,9457
521.6,9473
521.7,9486
521.8,9499
521.9,9511
522.0,9521
522.1,9531
522.2,9539
522.3,9543
522.4,9546
522.5,9547
522.6,9548
522.7,9547
522.8,9544
522.9,9539
523.0,9532
523.1,9527
523.2,9522
523.3,9515
523.4,9509
523.5,9503
523.6,9496
523.7,9490
523.8,9484
523.9,9476
524.0,9467
524.1,9457
524.2,9447
524.3,9436
524.4,9423
524.5,9408
524.6,9391
524.7,9374
524.8,9358
524.9,9342
525.0,9323
525.1,9304
525.2,9285
525.3,9265
525.4,9248
525.5,9230
525.6,9210
525.7,9190
525.8,9170
525.9,9151
526.0,9132
526.1,9113
526.2,9092
526.3,9072
526.4,9053
526.5,9037
526.6,9022
526.7,9007
526.8,8991
526.9,8977
527.0,8963
527.1,8952
527.2,8941
527.3,8930
527.4,8920
527.5,8910
527.6,8901
527.7,8893
527.8,8884
527.9,8877
528.0,8872
528.1,8869
528.2,8866
528.3,8863
528.4,8862
528.5,8861
528.6,8862
528.7,8865
528.8,8869
528.9,8872
529.0,8875
529.1,8879
529.2,8884
529.3,8891
529.4,8899
529.5,8907
529.6,8917
529.7,8927
529.8,8938
529.9,8951
530.0,8963
530.1,8976
530.2,8988
530.3,9000
530.4,9013
530.5,9026
530.6,9037
530.7,9048
530.8,9059
530.9,9071
531.0,9082
531.1,9091
531.2,9100
531.3,9107
531.4,9114
531.5,9120
531.6,9125
531.7,9127
531.8,9128
531.9,9126
532.0,9123
532.1,9120
532.2,9116
532.3,9110
532.4,9104
532.5,9098
532.6,9093
532.7,9087
532.8,9081
532.9,9074
533.0,9067
533.1,9060
533.2,9053
533.3,9043
533.4,9033
533.5,9021
533.6,9008
533.7,8996
533.8,8982
533.9,8966
534.0,8949
534.1,8931
534.2,8914
534.3,8897
534.4,8881
534.5,8861
534.6,8841
534.7,8820
534.8,8799
534.9,8780
535.0,8761
535.1,8740
535.2,8718
535.3,8696
535.4,8676
535.5,8657
535.6,8638
535.7,8619
535.8,8598
535.9,8580
536.0,8561
536.1,8541
536.2,8521
536.3,8502
536.4,8481
536.5,8461
536.6,8440
536.7,8418
536.8,8396
536.9,8377
537.0,8355
537.1,8334
537.2,8314
537.3,8292
537.4,8269
537.5,8248
537.6,8228
537.7,8206
537.8,8182
537.9,8158
538.0,8134
538.1,8113
538.2,8092
538.3,8068
538.4,8044
538.5,8021
538.6,7999
538.7,7976
538.8,7957
538.9,7939
539.0,7918
539.1,7897
539.2,7877
539.3,7858
539.4,7840
539.5,7824
539.6,7806
539.7,7790
539.8,7774
539.9,7761
540.0,7749
540.1,7738
540.2,7728
540.3,7720
540.4,7715
540.5,7711
540.6,7707
540.7,7706
540.8,7708
540.9,7714
541.0,7721
541.1,7729
541.2,7738
541.3,7748
541.4,7762
541.5,7778
541.6,7796
541.7,7813
541.8,7830
541.9,7848
542.0,7867
542.1,7889
542.2,7914
542.3,7938
542.4,7965
542.5,7993
542.6,8022
542.7,8051
542.8,8082
542.9,8112
543.0,8143
543.1,8172
543.2,8201
543.3,8229
543.4,8256
543.5,8282
543.6,8308
543.7,8333
543.8,8357
543.9,8382
544.0,8405
544.1,8428
544.2,8451
544.3,8475
544.4,8497
544.5,8515
544.6,8532
544.7,8547
544.8,8561
544.9,8575
545.0,8589
545.1,8598
545.2,8605
545.3,8611
545.4,8618
545.5,8624
545.6,8627
545.7,8628
545.8,8628
545.9,8628
546.0,8625
546.1,8620
546.2,8614
546.3,8606
546.4,8597
546.5,8587
546.6,8577
546.7,8568
546.8,8557
546.9,8546
547.0,8534
547.1,8523
547.2,8510
547.3,8495
547.4,8478
547.5,8461
547.6,8442
547.7,8422
547.8,8403
547.9,8383
548.0,8360
548.1,8338
548.2,8316
548.3,8295
548.4,8277
548.5,8260
548.6,8240
548.7,8222
548.8,8204
548.9,8190
549.0,8176
549.1,8162
549.2,8148
549.3,8135
549.4,8122
549.5,8112
549.6,8103
549.7,8094
549.8,8084
549.9,8075
550.0,8066
550.1,8060
550.2,8053
550.3,8045
550.4,8036
550.5,8026
550.6,8017
550.7,8009
550.8,8003
550.9,7995
551.0,7988
551.1,7982
551.2,7976
551.3,7974
551.4,7972
551.5,7970
551.6,7970
551.7,7971
551.8,7972
551.9,7978
552.0,7984
552.1,7990
552.2,7999
552.3,8008
552.4,8019
552.5,8032
552.6,8046
552.7,8059
552.8,8071
552.9,8084
553.0,8098
553.1,8112
553.2,8126
553.3,8137
553.4,8148
553.5,8158
553.6,8168
553.7,8180
553.8,8192
553.9,8200
554.0,8208
554.1,8215
554.2,8220
554.3,8228
554.4,8236
554.5,8241
554.6,8245
554.7,8248
554.8,8251
554.9,8257
555.0,8262
555.1,8265
555.2,8267
555.3,8268
555.4,8272
555.5,8273
555.6,8272
555.7,8268
555.8,8262
555.9,8255
556.0,8247
556.1,8239
556.2,8230
556.3,8216
556.4,8202
556.5,8186
556.6,8171
556.7,8155
556.8,8136
556.9,8116
557.0,8093
557.1,8069
557.2,8044
557.3,8019
557.4,7995
557.5,7966
557.6,7938
557.7,7910
557.8,7881
557.9,7853
558.0,7826
558.1,7795
558.2,7765
558.3,7733
558.4,7703
558.5,7671
558.6,7636
558.7,7601
558.8,7564
558.9,7527
559.0,7489
559.1,7452
559.2,7417
559.3,7379
559.4,7341
559.5,7302
559.6,7266
559.7,7228
559.8,7188
559.9,7147
560.0,7107
560.1,7066
560.2,7026
560.3,6989
560.4,6953
560.5,6917
560.6,6883
560.7,6851
560.8,6822
560.9,6797
561.0,6775
561.1,6753
561.2,6733
561.3,6715
561.4,6700
561.5,6687
561.6,6673
561.7,6659
561.8,6646
561.9,6634
562.0,6625
562.1,6617
562.2,6607
562.3,6598
562.4,6588
562.5,6579
562.6,6573
562.7,6566
562.8,6558
562.9,6550
563.0,6543
563.1,6536
563.2,6532
563.3,6530
563.4,6528
563.5,6527
563.6,6528
563.7,6530
563.8,6536
563.9,6542
564.0,6546
564.1,6551
564.2,6556
564.3,6562
564.4,6571
564.5,6579
564.6,6586
564.7,6593
564.8,6602
564.9,6611
565.0,6624
565.1,6636
565.2,6647
565.3,6658
565.4,6667
565.5,6677
565.6,6688
565.7,6699
565.8,6707
565.9,6715
566.0,6721
566.1,6727
566.2,6735
566.3,6744
566.4,6751
566.5,6758
566.6,6766
566.7,6773
566.8,6784
566.9,6795
567.0,6805
567.1,6815
567.2,6825
567.3,6836
567.4,6848
567.5,6861
567.6,6872
567.7,6882
567.8,6892
567.9,6903
568.0,6913
568.1,6921
568.2,6927
568.3,6933
568.4,6936
568.5,6938
568.6,6940
568.7,6941
568.8,6938
568.9,6935
569.0,6931
569.1,6928
569.2,6924
569.3,6917
569.4,6910
569.5,6903
569.6,6895
569.7,6886
569.8,6879
569.9,6871
570.0,6861
570.1,6850
570.2,6840
570.3,6829
570.4,6819
570.5,6810
570.6,6797
570.7,6784
570.8,6771
570.9,6760
571.0,6747
571.1,6732
571.2,6715
571.3,6696
571.4,6676
571.5,6655
571.6,6634
571.7,6613
571.8,6589
571.9,6564
572.0,6538
572.1,6514
572.2,6490
572.3,6466
572.4,6441
572.5,6418
572.6,6395
572.7,6373
572.8,6353
572.9,6335
573.0,6315
573.1,6297
573.2,6278
573.3,6259
573.4,6241
573.5,6223
573.6,6203
573.7,6182
573.8,6159
573.9,6137
574.0,6114
574.1,6087
574.2,6059
574.3,6031
574.4,6003
574.5,5976
574.6,5950
574.7,5922
574.8,5896
574.9,5870
575.0,5846
575.1,5823
575.2,5801
575.3,5777
575.4,5752
575.5,5727
575.6,5700
575.7,5674
575.8,5647
575.9,5618
576.0,5589
576.1,5559
576.2,5530
576.3,5501
576.4,5473
576.5,5444
576.6,5416
576.7,5388
576.8,5362
576.9,5338
577.0,5315
577.1,5291
577.2,5267
577.3,5245
577.4,5225
577.5,5205
577.6,5187
577.7,5170
577.8,5153
577.9,5135
578.0,5117
578.1,5098
578.2,5080
578.3,5064
578.4,5049
578.5,5033
578.6,5019
578.7,5008
578.8,4998
578.9,4990
579.0,4984
579.1,4979
579.2,4974
579.3,4970
579.4,4967
579.5,4964
579.6,4961
579.7,4958
579.8,4952
579.9,4946
580.0,4940
580.1,4935
580.2,4929
580.3,4925
580.4,4922
580.5,4917
580.6,4913
580.7,4910
580.8,4907
580.9,4906
581.0,4903
581.1,4900
581.2,4896
581.3,4892
581.4,4888
581.5,4883
581.6,4879
581.7,4873
581.8,4866
581.9,4858
582.0,4850
582.1,4841
582.2,4833
582.3,4826
582.4,4818
582.5,4809
582.6,4802
582.7,4795
582.8,4790
582.9,4785
583.0,4782
583.1,4780
583.2,4778
583.3,4775
583.4,4772
583.5,4769
583.6,4767
583.7,4763
583.8,4757
583.9,4751
584.0,4744
584.1,4737
584.2,4728
584.3,4720
584.4,4714
584.5,4709
584.6,4702
584.7,4693
584.8,4686
584.9,4678
585.0,4672
585.1,4666
585.2,4657
585.3,4649
585.4,4640
585.5,4629
585.6,4619
585.7,4609
585.8,4600
585.9,4588
586.0,4575
586.1,4563
586.2,4551
586.3,4539
586.4,4529
586.5,4518
586.6,4508
586.7,4497
586.8,4488
586.9,4479
587.0,4470
587.1,4463
587.2,4456
587.3,4447
587.4,4438
587.5,4428
587.6,4417
587.7,4406
587.8,4396
587.9,4386
588.0,4374
588.1,4362
588.2,4352
588.3,4343
588.4,4336
588.5,4332
588.6,4327
588.7,4324
588.8,4322
588.9,4321
589.0,4323
589.1,4326
589.2,4331
589.3,4335
589.4,4338
589.5,4344
589.6,4348
589.7,4353
589.8,4360
589.9,4367
590.0,4374
590.1,4380
590.2,4386
590.3,4392
590.4,4400
590.5,4407
590.6,4414
590.7,4420
590.8,4426
590.9,4433
591.0,4440
591.1,4448
591.2,4455
591.3,4460
591.4,4463
591.5,4466
591.6,4467
591.7,4467
591.8,4466
591.9,4465
592.0,4460
592.1,4454
592.2,4446
592.3,4439
592.4,4433
592.5,4425
592.6,4415
592.7,4404
592.8,4392
592.9,4380
593.0,4366
593.1,4352
593.2,4337
593.3,4319
593.4,4299
593.5,4275
593.6,4253
593.7,4229
593.8,4206
593.9,4180
594.0,4151
594.1,4122
594.2,4093
594.3,4064
594.4,4032
594.5,4002
594.6,3974
594.7,3944
594.8,3914
594.9,3883
595.0,3855
595.1,3829
595.2,3804
595.3,3779
595.4,3756
595.5,3735
595.6,3716
595.7,3696
595.8,3678
595.9,3663
596.0,3649
596.1,3636
596.2,3622
596.3,3611
596.4,3600
596.5,3591
596.6,3584
596.7,3576
596.8,3571
596.9,3569
597.0,3567
597.1,3566
597.2,3569
597.3,3573
597.4,3578
597.5,3586
597.6,3594
597.7,3603
597.8,3613
597.9,3625
598.0,3638
598.1,3651
598.2,3664
598.3,3679
598.4,3695
598.5,3712
598.6,3729
598.7,3747
598.8,3764
598.9,3784
599.0,3802
599.1,3819
599.2,3838
599.3,3856
599.4,3873
599.5,3888
599.6,3902
599.7,3917
599.8,3930
599.9,3943
600.0,3955
600.1,3965
600.2,3973
600.3,3980
600.4,3985
600.5,3989
600.6,3992
600.7,3994
600.8,3994
600.9,3992
601.0,3989
601.1,3986
601.2,3983
601.3,3981
601.4,3978
601.5,3974
601.6,3969
601.7,3963
601.8,3956
601.9,3949
602.0,3940
602.1,3930
602.2,3918
602.3,3904
602.4,3888
602.5,3871
602.6,3856
602.7,3840
602.8,3822
602.9,3802
603.0,3784
603.1,3764
603.2,3743
603.3,3723
603.4,3703
603.5,3683
603.6,3662
603.7,3638
603.8,3616
603.9,3595
604.0,3574
604.1,3551
604.2,3527
604.3,3505
604.4,3483
604.5,3461
604.6,3439
604.7,3417
604.8,3395
604.9,3374
605.0,3351
605.1,3332
605.2,3313
605.3,3297
605.4,3281
605.5,3263
605.6,3247
605.7,3231
605.8,3216
605.9,3201
606.0,3186
606.1,3172
606.2,3156
606.3,3140
606.4,3122
606.5,3106
606.6,3091
606.7,3076
606.8,3061
606.9,3045
607.0,3031
607.1,3019
607.2,3007
607.3,2997
607.4,2989
607.5,2983
607.6,2976
607.7,2970
607.8,2965
607.9,2960
608.0,2956
608.1,2951
608.2,2945
608.3,2939
608.4,2932
608.5,2924
608.6,2915
608.7,2906
608.8,2897
608.9,2886
609.0,2875
609.1,2864
609.2,2852
609.3,2840
609.4,2829
609.5,2818
609.6,2806
609.7,2795
609.8,2783
609.9,2771
610.0,2758
610.1,2748
610.2,2738
610.3,2728
610.4,2717
610.5,2708
610.6,2698
610.7,2690
610.8,2682
610.9,2673
611.0,2665
611.1,2658
611.2,2649
611.3,2640
611.4,2632
611.5,2624
611.6,2614
611.7,2604
611.8,2594
611.9,2584
612.0,2573
612.1,2562
612.2,2551
612.3,2540
612.4,2528
612.5,2517
612.6,2506
612.7,2498
612.8,2491
612.9,2486
613.0,2481
613.1,2479
613.2,2478
613.3,2479
613.4,2484
613.5,2490
613.6,2497
613.7,2504
613.8,2511
613.9,2520
614.0,2528
614.1,2538
614.2,2547
614.3,2556
614.4,2565
614.5,2573
614.6,2580
614.7,2588
614.8,2597
614.9,2607
615.0,2614
615.1,2622
615.2,2629
615.3,2636
615.4,2644
615.5,2652
615.6,2659
615.7,2666
615.8,2672
615.9,2679
616.0,2687
616.1,2697
616.2,2708
616.3,2718
616.4,2729
616.5,2740
616.6,2754
616.7,2767
616.8,2782
616.9,2797
617.0,2811
617.1,2824
617.2,2837
617.3,2849
617.4,2862
617.5,2874
617.6,2885
617.7,2894
617.8,2901
617.9,2907
618.0,2912
618.1,2917
618.2,2920
618.3,2921
618.4,2922
618.5,2922
618.6,2922
618.7,2923
618.8,2925
618.9,2929
619.0,2933
619.1,2937
619.2,2943
619.3,2948
619.4,2953
619.5,2959
619.6,2964
619.7,2966
619.8,2967
619.9,2965
620.0,2961
620.1,2955
620.2,2948
620.3,2939
620.4,2928
620.5,2915
620.6,2899
620.7,2882
620.8,2864
620.9,2846
621.0,2826
621.1,2805
621.2,2784
621.3,2762
621.4,2738
621.5,2715
621.6,2693
621.7,2672
621.8,2650
621.9,2626
622.0,2605
622.1,2584
622.2,2564
622.3,2543
622.4,2520
622.5,2499
622.6,2478
622.7,2457
622.8,2435
622.9,2414
623.0,2394
623.1,2372
623.2,2349
623.3,2328
623.4,2307
623.5,2286
623.6,2264
623.7,2241
623.8,2218
623.9,2194
624.0,2172
624.1,2147
624.2,2123
624.3,2101
624.4,2080
624.5,2058
624.6,2036
624.7,2018
624.8,2001
624.9,1986
625.0,1971
625.1,1959
625.2,1947
625.3,1938
625.4,1930
625.5,1924
625.6,1919
625.7,1916
625.8,1912
625.9,1910
626.0,1908
626.1,1906
626.2,1905
626.3,1905
626.4,1905
626.5,1905
626.6,1906
626.7,1907
626.8,1907
626.9,1909
627.0,1912
627.1,1914
627.2,1919
627.3,1924
627.4,1929
627.5,1936
627.6,1944
627.7,1954
627.8,1964
627.9,1975
628.0,1988
628.1,2003
628.2,2017
628.3,2032
628.4,2048
628.5,2063
628.6,2080
628.7,2094
628.8,2108
628.9,2123
629.0,2137
629.1,2150
629.2,2161
629.3,2171
629.4,2181
629.5,2191
629.6,2201
629.7,2211
629.8,2220
629.9,2228
630.0,2235
630.1,2242
630.2,2248
630.3,2254
630.4,2260
630.5,2265
630.6,2268
630.7,2269
630.8,2270
630.9,2270
631.0,2271
631.1,2271
631.2,2269
631.3,2266
631.4,2263
631.5,2259
631.6,2255
631.7,2252
631.8,2247
631.9,2242
632.0,2236
632.1,2228
632.2,2222
632.3,2215
632.4,2208
632.5,2201
632.6,2192
632.7,2183
632.8,2174
632.9,2163
633.0,2151
633.1,2139
633.2,2127
633.3,2113
633.4,2097
633.5,2082
633.6,2067
633.7,2052
633.8,2038
633.9,2023
634.0,2010
634.1,1998
634.2,1988
634.3,1977
634.4,1968
634.5,1960
634.6,1952
634.7,1944
634.8,1936
634.9,1929
635.0,1921
635.1,1913
635.2,1905
635.3,1897
635.4,1890
635.5,1882
635.6,1874
635.7,1865
635.8,1858
635.9,1850
636.0,1842
636.1,1832
636.2,1824
636.3,1815
636.4,1807
636.5,1799
636.6,1790
636.7,1782
636.8,1774
636.9,1766
637.0,1758
637.1,1751
637.2,1745
637.3,1738
637.4,1730
637.5,1723
637.6,1717
637.7,1711
637.8,1706
637.9,1702
638.0,1698
638.1,1695
638.2,1693
638.3,1691
638.4,1690
638.5,1690
638.6,1690
638.7,1690
638.8,1690
638.9,1690
639.0,1690
639.1,1690
639.2,1690
639.3,1690
639.4,1689
639.5,1689
639.6,1688
639.7,1688
639.8,1690
639.9,1691
640.0,1692
640.1,1694
640.2,1696
640.3,1699
640.4,1703
640.5,1707
640.6,1711
640.7,1715
640.8,1719
640.9,1723
641.0,1727
641.1,1731
641.2,1735
641.3,1738
641.4,1741
641.5,1742
641.6,1743
641.7,1742
641.8,1741
641.9,1739
642.0,1737
642.1,1733
642.2,1729
642.3,1723
642.4,1717
642.5,1711
642.6,1707
642.7,1701
642.8,1695
642.9,1690
643.0,1684
643.1,1678
643.2,1673
643.3,1669
643.4,1663
643.5,1658
643.6,1652
643.7,1646
643.8,1640
643.9,1634
644.0,1629
644.1,1623
644.2,1618
644.3,1613
644.4,1609
644.5,1606
644.6,1604
644.7,1604
644.8,1604
644.9,1605
645.0,1608
645.1,1613
645.2,1619
645.3,1627
645.4,1635
645.5,1643
645.6,1653
645.7,1663
645.8,1675
645.9,1687
646.0,1699
646.1,1711
646.2,1723
646.3,1737
646.4,1750
646.5,1765
646.6,1781
646.7,1798
646.8,1817
646.9,1835
647.0,1855
647.1,1877
647.2,1898
647.3,1920
647.4,1943
647.5,1964
647.6,1986
647.7,2007
647.8,2027
647.9,2048
648.0,2069
648.1,2089
648.2,2108
648.3,2126
648.4,2143
648.5,2161
648.6,2180
648.7,2197
648.8,2213
648.9,2229
649.0,2244
649.1,2258
649.2,2271
649.3,2285
649.4,2298
649.5,2309
649.6,2318
649.7,2327
649.8,2334
649.9,2341
650.0,2345
650.1,2347
650.2,2347
650.3,2346
650.4,2342
650.5,2339
650.6,2336
650.7,2332
650.8,2328
650.9,2323
651.0,2318
651.1,2313
651.2,2308
651.3,2303
651.4,2298
651.5,2290
651.6,2279
651.7,2267
651.8,2253
651.9,2239
652.0,2222
652.1,2202
652.2,2181
652.3,2160
652.4,2138
652.5,2114
652.6,2092
652.7,2072
652.8,2050
652.9,2028
653.0,2009
653.1,1991
653.2,1975
653.3,1958
653.4,1944
653.5,1931
653.6,1919
653.7,1907
653.8,1896
653.9,1886
654.0,1877
654.1,1869
654.2,1859
654.3,1849
654.4,1841
654.5,1832
654.6,1824
654.7,1815
654.8,1806
654.9,1797
655.0,1789
655.1,1781
655.2,1775
655.3,1768
655.4,1762
655.5,1755
655.6,1748
655.7,1742
655.8,1734
655.9,1726
656.0,1717
656.1,1707
656.2,1697
656.3,1686
656.4,1676
656.5,1665
656.6,1656
656.7,1648
656.8,1641
656.9,1634
657.0,1629
657.1,1626
657.2,1623
657.3,1620
657.4,1619
657.5,1617
657.6,1614
657.7,1610
657.8,1605
657.9,1599
658.0,1592
658.1,1586
658.2,1578
658.3,1568
658.4,1558
658.5,1548
658.6,1536
658.7,1524
658.8,1513
658.9,1503
659.0,1492
659.1,1480
659.2,1469
659.3,1460
659.4,1451
659.5,1443
659.6,1435
659.7,1428
659.8,1421
659.9,1413
660.0,1404
660.1,1395
660.2,1386
660.3,1377
660.4,1366
660.5,1353
660.6,1340
660.7,1328
660.8,1315
660.9,1302
661.0,1289
661.1,1277
661.2,1265
661.3,1252
661.4,1240
661.5,1229
661.6,1218
661.7,1207
661.8,1195
661.9,1184
662.0,1173
662.1,1161
662.2,1150
662.3,1138
662.4,1127
662.5,1117
662.6,1107
662.7,1096
662.8,1086
662.9,1077
663.0,1068
663.1,1060
663.2,1053
663.3,1046
663.4,1041
663.5,1034
663.6,1028
663.7,1022
663.8,1016
663.9,1010
664.0,1004
664.1,998
664.2,992
664.3,985
664.4,979
664.5,972
664.6,968
664.7,964
664.8,961
664.9,960
665.0,959
665.1,960
665.2,962
665.3,965
665.4,971
665.5,977
665.6,985
665.7,994
665.8,1003
665.9,1012
666.0,1021
666.1,1032
666.2,1044
666.3,1055
666.4,1067
666.5,1077
666.6,1088
666.7,1099
666.8,1110
666.9,1121
667.0,1132
667.1,1144
667.2,1155
667.3,1164
667.4,1173
667.5,1182
667.6,1190
667.7,1197
667.8,1203
667.9,1207
668.0,1209
668.1,1210
668.2,1209
668.3,1206
668.4,1203
668.5,1199
668.6,1193
668.7,1188
668.8,1181
668.9,1176
669.0,1171
669.1,1166
669.2,1162
669.3,1159
669.4,1156
669.5,1153
669.6,1151
669.7,1148
669.8,1144
669.9,1140
670.0,1137
670.1,1132
670.2,1127
670.3,1121
670.4,1115
670.5,1108
670.6,1101
670.7,1094
670.8,1088
670.9,1082
671.0,1076
671.1,1070
671.2,1064
671.3,1060
671.4,1056
671.5,1053
671.6,1052
671.7,1051
671.8,1051
671.9,1051
672.0,1051
672.1,1052
672.2,1053
672.3,1054
672.4,1055
672.5,1055
672.6,1054
672.7,1054
672.8,1053
672.9,1052
673.0,1052
673.1,1052
673.2,1052
673.3,1052
673.4,1052
673.5,1052
673.6,1053
673.7,1053
673.8,1053
673.9,1053
674.0,1052
674.1,1049
674.2,1046
674.3,1042
674.4,1039
674.5,1035
674.6,1031
674.7,1027
674.8,1022
674.9,1017
675.0,1012
675.1,1007
675.2,1003
675.3,1000
675.4,997
675.5,994
675.6,992
675.7,990
675.8,988
675.9,987
676.0,985
676.1,984
676.2,982
676.3,979
676.4,976
676.5,971
676.6,967
676.7,962
676.8,957
676.9,952
677.0,948
677.1,944
677.2,941
677.3,938
677.4,936
677.5,936
677.6,937
677.7,939
677.8,941
677.9,943
678.0,945
678.1,948
678.2,951
678.3,955
678.4,957
678.5,959
678.6,961
678.7,961
678.8,960
678.9,958
679.0,956
679.1,954
679.2,951
679.3,948
679.4,946
679.5,943
679.6,942
679.7,940
679.8,940
679.9,940
680.0,940
680.1,941
680.2,941
680.3,941
680.4,941
680.5,941
680.6,940
680.7,938
680.8,937
680.9,936
681.0,934
681.1,934
681.2,933
681.3,933
681.4,933
681.5,934
681.6,934
681.7,936
681.8,938
681.9,941
682.0,944
682.1,947
682.2,950
682.3,954
682.4,959
682.5,963
682.6,968
682.7,974
682.8,979
682.9,983
683.0,987
683.1,990
683.2,993
683.3,996
683.4,998
683.5,1001
683.6,1003
683.7,1006
683.8,1010
683.9,1015
684.0,1021
684.1,1026
684.2,1032
684.3,1038
684.4,1044
684.5,1050
684.6,1054
684.7,1058
684.8,1061
684.9,1063
685.0,1064
685.1,1065
685.2,1066
685.3,1066
685.4,1066
685.5,1067
685.6,1067
685.7,1067
685.8,1068
685.9,1067
686.0,1067
686.1,1065
686.2,1063
686.3,1060
686.4,1058
686.5,1055
686.6,1053
686.7,1051
686.8,1050
686.9,1049
687.0,1049
687.1,1049
687.2,1048
687.3,1048
687.4,1046
687.5,1044
687.6,1042
687.7,1040
687.8,1038
687.9,1035
688.0,1033
688.1,1031
688.2,1030
688.3,1030
688.4,1032
688.5,1034
688.6,1036
688.7,1038
688.8,1039
688.9,1041
689.0,1043
689.1,1045
689.2,1047
689.3,1049
689.4,1051
689.5,1054
689.6,1057
689.7,1061
689.8,1065
689.9,1069
690.0,1073
690.1,1076
690.2,1080
690.3,1082
690.4,1083
690.5,1083
690.6,1083
690.7,1081
690.8,1079
690.9,1076
691.0,1074
691.1,1071
691.2,1068
691.3,1065
691.4,1060
691.5,1055
691.6,1050
691.7,1044
691.8,1038
691.9,1031
692.0,1023
692.1,1015
692.2,1007
692.3,1000
692.4,993
692.5,987
692.6,982
692.7,977
692.8,973
692.9,969
693.0,967
693.1,965
693.2,963
693.3,962
693.4,962
693.5,962
693.6,963
693.7,964
693.8,965
693.9,967
694.0,969
694.1,971
694.2,973
694.3,976
694.4,979
694.5,981
694.6,984
694.7,986
694.8,988
694.9,991
695.0,993
695.1,996
695.2,1000
695.3,1004
695.4,1008
695.5,1014
695.6,1019
695.7,1025
695.8,1031
695.9,1037
696.0,1044
696.1,1051
696.2,1057
696.3,1062
696.4,1066
696.5,1069
696.6,1070
696.7,1071
696.8,1071
696.9,1069
697.0,1067
697.1,1063
697.2,1058
697.3,1053
697.4,1048
697.5,1042
697.6,1036
697.7,1030
697.8,1023
697.9,1015
698.0,1006
698.1,998
698.2,988
698.3,978
698.4,968
698.5,957
698.6,945
698.7,933
698.8,922
698.9,911
699.0,901
699.1,889
699.2,879
699.3,869
699.4,860
699.5,850
699.6,841
699.7,833
699.8,824
699.9,816
700.0,809
