Created as New Dataset,Sample 2528 By Analyst Date Thursday, December 19 2024
nm,INT
375.0,1334
375.1,1305
375.2,1269
375.3,1235
375.4,1205
375.5,1180
375.6,1156
375.7,1132
375.8,1112
375.9,1094
376.0,1076
376.1,1059
376.2,1044
376.3,1029
376.4,1014
376.5,1001
376.6,989
376.7,976
376.8,964
376.9,953
377.0,942
377.1,932
377.2,922
377.3,912
377.4,903
377.5,894
377.6,886
377.7,878
377.8,870
377.9,863
378.0,856
378.1,850
378.2,844
378.3,838
378.4,832
378.5,827
378.6,821
378.7,817
378.8,811
378.9,806
379.0,801
379.1,797
379.2,791
379.3,785
379.4,780
379.5,774
379.6,769
379.7,763
379.8,758
379.9,752
380.0,746
380.1,741
380.2,735
380.3,730
380.4,725
380.5,720
380.6,715
380.7,710
380.8,706
380.9,701
381.0,696
381.1,691
381.2,687
381.3,682
381.4,677
381.5,672
381.6,667
381.7,663
381.8,658
381.9,653
382.0,649
382.1,645
382.2,641
382.3,639
382.4,637
382.5,635
382.6,634
382.7,633
382.8,634
382.9,635
383.0,638
383.1,641
383.2,645
383.3,648
383.4,653
383.5,658
383.6,663
383.7,669
383.8,675
383.9,682
384.0,688
384.1,695
384.2,702
384.3,710
384.4,717
384.5,726
384.6,735
384.7,743
384.8,751
384.9,760
385.0,768
385.1,777
385.2,786
385.3,795
385.4,803
385.5,812
385.6,821
385.7,830
385.8,838
385.9,846
386.0,854
386.1,861
386.2,867
386.3,873
386.4,879
386.5,883
386.6,887
386.7,891
386.8,893
386.9,895
387.0,897
387.1,899
387.2,900
387.3,900
387.4,899
387.5,899
387.6,897
387.7,895
387.8,893
387.9,890
388.0,886
388.1,882
388.2,878
388.3,874
388.4,870
388.5,866
388.6,862
388.7,858
388.8,854
388.9,850
389.0,846
389.1,842
389.2,839
389.3,836
389.4,833
389.5,830
389.6,828
389.7,826
389.8,825
389.9,824
390.0,823
390.1,823
390.2,824
390.3,825
390.4,826
390.5,827
390.6,828
390.7,830
390.8,833
390.9,836
391.0,839
391.1,844
391.2,849
391.3,855
391.4,862
391.5,869
391.6,878
391.7,887
391.8,896
391.9,906
392.0,917
392.1,927
392.2,938
392.3,949
392.4,960
392.5,970
392.6,980
392.7,991
392.8,1000
392.9,1010
393.0,1020
393.1,1029
393.2,1038
393.3,1047
393.4,1057
393.5,1065
393.6,1074
393.7,1084
393.8,1093
393.9,1103
394.0,1113
394.1,1124
394.2,1134
394.3,1145
394.4,1155
394.5,1166
394.6,1176
394.7,1186
394.8,1197
394.9,1206
395.0,1215
395.1,1224
395.2,1232
395.3,1240
395.4,1247
395.5,1254
395.6,1260
395.7,1266
395.8,1272
395.9,1277
396.0,1283
396.1,1288
396.2,1293
396.3,1298
396.4,1303
396.5,1309
396.6,1315
396.7,1320
396.8,1326
396.9,1332
397.0,1339
397.1,1345
397.2,1352
397.3,1359
397.4,1366
397.5,1373
397.6,1380
397.7,1388
397.8,1395
397.9,1403
398.0,1411
398.1,1418
398.2,1426
398.3,1434
398.4,1442
398.5,1451
398.6,1459
398.7,1469
398.8,1477
398.9,1486
399.0,1497
399.1,1508
399.2,1518
399.3,1530
399.4,1542
399.5,1554
399.6,1566
399.7,1579
399.8,1593
399.9,1607
400.0,1621
400.1,1636
400.2,1651
400.3,1666
400.4,1681
400.5,1696
400.6,1711
400.7,1726
400.8,1741
400.9,1756
401.0,1770
401.1,1785
401.2,1800
401.3,1814
401.4,1828
401.5,1843
401.6,1857
401.7,1872
401.8,1887
401.9,1903
402.0,1917
402.1,1931
402.2,1946
402.3,1961
402.4,1976
402.5,1990
402.6,2005
402.7,2021
402.8,2035
402.9,2050
403.0,2066
403.1,2082
403.2,2097
403.3,2115
403.4,2131
403.5,2148
403.6,2165
403.7,2182
403.8,2199
403.9,2216
404.0,2234
404.1,2249
404.2,2265
404.3,2281
404.4,2297
404.5,2312
404.6,2327
404.7,2342
404.8,2357
404.9,2372
405.0,2387
405.1,2402
405.2,2418
405.3,2433
405.4,2450
405.5,2466
405.6,2483
405.7,2501
405.8,2518
405.9,2536
406.0,2554
406.1,2572
406.2,2590
406.3,2607
406.4,2625
406.5,2641
406.6,2658
406.7,2674
406.8,2688
406.9,2704
407.0,2719
407.1,2735
407.2,2750
407.3,2766
407.4,2782
407.5,2797
407.6,2813
407.7,2829
407.8,2845
407.9,2861
408.0,2876
408.1,2891
408.2,2905
408.3,2919
408.4,2931
408.5,2943
408.6,2953
408.7,2964
408.8,2974
408.9,2982
409.0,2991
409.1,2998
409.2,3004
409.3,3011
409.4,3017
409.5,3022
409.6,3027
409.7,3033
409.8,3038
409.9,3043
410.0,3048
410.1,3054
410.2,3059
410.3,3065
410.4,3071
410.5,3077
410.6,3084
410.7,3090
410.8,3096
410.9,3101
411.0,3106
411.1,3111
411.2,3116
411.3,3121
411.4,3125
411.5,3129
411.6,3133
411.7,3137
411.8,3141
411.9,3145
412.0,3149
412.1,3153
412.2,3157
412.3,3161
412.4,3164
412.5,3168
412.6,3172
412.7,3176
412.8,3179
412.9,3183
413.0,3186
413.1,3190
413.2,3193
413.3,3197
413.4,3201
413.5,3206
413.6,3210
413.7,3215
413.8,3219
413.9,3223
414.0,3227
414.1,3231
414.2,3235
414.3,3238
414.4,3241
414.5,3243
414.6,3244
414.7,3245
414.8,3245
414.9,3244
415.0,3242
415.1,3241
415.2,3239
415.3,3236
415.4,3232
415.5,3227
415.6,3223
415.7,3219
415.8,3214
415.9,3209
416.0,3205
416.1,3201
416.2,3197
416.3,3192
416.4,3188
416.5,3185
416.6,3182
416.7,3180
416.8,3177
416.9,3175
417.0,3172
417.1,3169
417.2,3166
417.3,3163
417.4,3159
417.5,3155
417.6,3151
417.7,3147
417.8,3142
417.9,3137
418.0,3132
418.1,3128
418.2,3125
418.3,3123
418.4,3121
418.5,3120
418.6,3120
418.7,3120
418.8,3120
418.9,3122
419.0,3124
419.1,3127
419.2,3130
419.3,3133
419.4,3136
419.5,3140
419.6,3144
419.7,3148
419.8,3151
419.9,3156
420.0,3160
420.1,3165
420.2,3170
420.3,3174
420.4,3178
420.5,3183
420.6,3189
420.7,3194
420.8,3199
420.9,3205
421.0,3212
421.1,3219
421.2,3226
421.3,3234
421.4,3243
421.5,3253
421.6,3264
421.7,3274
421.8,3284
421.9,3295
422.0,3305
422.1,3316
422.2,3326
422.3,3337
422.4,3347
422.5,3358
422.6,3370
422.7,3380
422.8,3392
422.9,3403
423.0,3415
423.1,3428
423.2,3439
423.3,3451
423.4,3461
423.5,3472
423.6,3482
423.7,3491
423.8,3499
423.9,3506
424.0,3513
424.1,3520
424.2,3525
424.3,3531
424.4,3537
424.5,3544
424.6,3551
424.7,3556
424.8,3563
424.9,3570
425.0,3577
425.1,3584
425.2,3591
425.3,3597
425.4,3603
425.5,3609
425.6,3615
425.7,3620
425.8,3624
425.9,3629
426.0,3632
426.1,3635
426.2,3637
426.3,3638
426.4,3640
426.5,3640
426.6,3641
426.7,3640
426.8,3639
426.9,3639
427.0,3639
427.1,3639
427.2,3640
427.3,3642
427.4,3644
427.5,3647
427.6,3651
427.7,3655
427.8,3659
427.9,3663
428.0,3668
428.1,3673
428.2,3678
428.3,3682
428.4,3686
428.5,3690
428.6,3694
428.7,3697
428.8,3700
428.9,3705
429.0,3709
429.1,3714
429.2,3718
429.3,3722
429.4,3726
429.5,3730
429.6,3735
429.7,3739
429.8,3743
429.9,3748
430.0,3753
430.1,3758
430.2,3762
430.3,3767
430.4,3773
430.5,3780
430.6,3787
430.7,3793
430.8,3801
430.9,3809
431.0,3817
431.1,3826
431.2,3835
431.3,3845
431.4,3856
431.5,3867
431.6,3879
431.7,3890
431.8,3903
431.9,3916
432.0,3929
432.1,3942
432.2,3953
432.3,3965
432.4,3976
432.5,3986
432.6,3995
432.7,4004
432.8,4011
432.9,4019
433.0,4027
433.1,4033
433.2,4041
433.3,4047
433.4,4055
433.5,4063
433.6,4071
433.7,4079
433.8,4088
433.9,4097
434.0,4107
434.1,4115
434.2,4124
434.3,4131
434.4,4140
434.5,4149
434.6,4157
434.7,4166
434.8,4174
434.9,4182
435.0,4190
435.1,4198
435.2,4205
435.3,4212
435.4,4219
435.5,4226
435.6,4230
435.7,4235
435.8,4238
435.9,4242
436.0,4245
436.1,4248
436.2,4249
436.3,4250
436.4,4251
436.5,4253
436.6,4254
436.7,4255
436.8,4256
436.9,4256
437.0,4255
437.1,4256
437.2,4256
437.3,4256
437.4,4256
437.5,4256
437.6,4257
437.7,4259
437.8,4260
437.9,4262
438.0,4265
438.1,4267
438.2,4271
438.3,4274
438.4,4275
438.5,4277
438.6,4278
438.7,4278
438.8,4278
438.9,4275
439.0,4272
439.1,4268
439.2,4262
439.3,4258
439.4,4254
439.5,4249
439.6,4243
439.7,4237
439.8,4233
439.9,4230
440.0,4226
440.1,4222
440.2,4218
440.3,4214
440.4,4211
440.5,4206
440.6,4201
440.7,4197
440.8,4192
440.9,4188
441.0,4183
441.1,4177
441.2,4172
441.3,4166
441.4,4161
441.5,4155
441.6,4147
441.7,4139
441.8,4130
441.9,4120
442.0,4111
442.1,4101
442.2,4090
442.3,4080
442.4,4069
442.5,4058
442.6,4048
442.7,4039
442.8,4028
442.9,4019
443.0,4008
443.1,3998
443.2,3989
443.3,3978
443.4,3966
443.5,3955
443.6,3943
443.7,3933
443.8,3924
443.9,3915
444.0,3907
444.1,3899
444.2,3893
444.3,3888
444.4,3882
444.5,3875
444.6,3869
444.7,3863
444.8,3857
444.9,3852
445.0,3844
445.1,3837
445.2,3830
445.3,3825
445.4,3822
445.5,3818
445.6,3816
445.7,3814
445.8,3816
445.9,3818
446.0,3819
446.1,3822
446.2,3825
446.3,3829
446.4,3833
446.5,3839
446.6,3842
446.7,3846
446.8,3849
446.9,3855
447.0,3860
447.1,3864
447.2,3867
447.3,3870
447.4,3872
447.5,3875
447.6,3877
447.7,3877
447.8,3877
447.9,3876
448.0,3875
448.1,3875
448.2,3876
448.3,3875
448.4,3874
448.5,3874
448.6,3875
448.7,3877
448.8,3877
448.9,3877
449.0,3877
449.1,3876
449.2,3877
449.3,3878
449.4,3878
449.5,3877
449.6,3876
449.7,3877
449.8,3877
449.9,3875
450.0,3874
450.1,3872
450.2,3870
450.3,3869
450.4,3868
450.5,3864
450.6,3859
450.7,3854
450.8,3851
450.9,3848
451.0,3842
451.1,3836
451.2,3829
451.3,3825
451.4,3819
451.5,3813
451.6,3806
451.7,3801
451.8,3796
451.9,3793
452.0,3791
452.1,3788
452.2,3786
452.3,3785
452.4,3786
452.5,3788
452.6,3789
452.7,3790
452.8,3791
452.9,3791
453.0,3793
453.1,3794
453.2,3793
453.3,3793
453.4,3792
453.5,3792
453.6,3793
453.7,3795
453.8,3795
453.9,3797
454.0,3800
454.1,3806
454.2,3811
454.3,3817
454.4,3822
454.5,3829
454.6,3836
454.7,3845
454.8,3854
454.9,3862
455.0,3870
455.1,3878
455.2,3886
455.3,3894
455.4,3900
455.5,3906
455.6,3910
455.7,3913
455.8,3916
455.9,3919
456.0,3920
456.1,3920
456.2,3919
456.3,3920
456.4,3920
456.5,3919
456.6,3918
456.7,3917
456.8,3915
456.9,3915
457.0,3915
457.1,3913
457.2,3910
457.3,3908
457.4,3906
457.5,3903
457.6,3898
457.7,3893
457.8,3888
457.9,3883
458.0,3878
458.1,3873
458.2,3866
458.3,3860
458.4,3853
458.5,3846
458.6,3840
458.7,3835
458.8,3828
458.9,3821
459.0,3814
459.1,3808
459.2,3802
459.3,3796
459.4,3790
459.5,3785
459.6,3780
459.7,3776
459.8,3772
459.9,3768
460.0,3765
460.1,3762
460.2,3760
460.3,3758
460.4,3757
460.5,3757
460.6,3757
460.7,3758
460.8,3761
460.9,3764
461.0,3768
461.1,3773
461.2,3779
461.3,3786
461.4,3794
461.5,3801
461.6,3809
461.7,3817
461.8,3827
461.9,3836
462.0,3846
462.1,3856
462.2,3867
462.3,3879
462.4,3893
462.5,3906
462.6,3920
462.7,3936
462.8,3952
462.9,3969
463.0,3986
463.1,4003
463.2,4020
463.3,4037
463.4,4054
463.5,4070
463.6,4087
463.7,4103
463.8,4118
463.9,4134
464.0,4149
464.1,4165
464.2,4179
464.3,4192
464.4,4206
464.5,4220
464.6,4233
464.7,4246
464.8,4260
464.9,4274
465.0,4289
465.1,4306
465.2,4322
465.3,4339
465.4,4357
465.5,4376
465.6,4396
465.7,4415
465.8,4435
465.9,4454
466.0,4472
466.1,4490
466.2,4507
466.3,4524
466.4,4540
466.5,4557
466.6,4572
466.7,4588
466.8,4604
466.9,4621
467.0,4637
467.1,4653
467.2,4669
467.3,4683
467.4,4698
467.5,4713
467.6,4726
467.7,4739
467.8,4752
467.9,4763
468.0,4774
468.1,4786
468.2,4795
468.3,4806
468.4,4814
468.5,4821
468.6,4829
468.7,4836
468.8,4841
468.9,4847
469.0,4851
469.1,4855
469.2,4860
469.3,4866
469.4,4872
469.5,4878
469.6,4883
469.7,4888
469.8,4895
469.9,4900
470.0,4905
470.1,4907
470.2,4909
470.3,4911
470.4,4913
470.5,4914
470.6,4914
470.7,4913
470.8,4912
470.9,4913
471.0,4914
471.1,4916
471.2,4916
471.3,4917
471.4,4920
471.5,4922
471.6,4925
471.7,4928
471.8,4931
471.9,4934
472.0,4938
472.1,4944
472.2,4950
472.3,4955
472.4,4961
472.5,4969
472.6,4978
472.7,4987
472.8,4995
472.9,5003
473.0,5014
473.1,5024
473.2,5035
473.3,5046
473.4,5057
473.5,5069
473.6,5085
473.7,5102
473.8,5119
473.9,5135
474.0,5153
474.1,5172
474.2,5192
474.3,5213
474.4,5232
474.5,5250
474.6,5268
474.7,5288
474.8,5308
474.9,5328
475.0,5347
475.1,5365
475.2,5385
475.3,5406
475.4,5428
475.5,5448
475.6,5468
475.7,5489
475.8,5510
475.9,5531
476.0,5553
476.1,5572
476.2,5590
476.3,5608
476.4,5629
476.5,5651
476.6,5671
476.7,5690
476.8,5709
476.9,5731
477.0,5753
477.1,5774
477.2,5794
477.3,5813
477.4,5833
477.5,5853
477.6,5873
477.7,5893
477.8,5908
477.9,5924
478.0,5943
478.1,5962
478.2,5980
478.3,5995
478.4,6010
478.5,6027
478.6,6042
478.7,6057
478.8,6071
478.9,6081
479.0,6091
479.1,6103
479.2,6113
479.3,6122
479.4,6127
479.5,6135
479.6,6144
479.7,6154
479.8,6165
479.9,6176
480.0,6185
480.1,6194
480.2,6206
480.3,6218
480.4,6232
480.5,6246
480.6,6257
480.7,6268
480.8,6282
480.9,6296
481.0,6309
481.1,6319
481.2,6331
481.3,6345
481.4,6360
481.5,6374
481.6,6387
481.7,6397
481.8,6406
481.9,6417
482.0,6428
482.1,6440
482.2,6451
482.3,6461
482.4,6469
482.5,6480
482.6,6492
482.7,6504
482.8,6516
482.9,6527
483.0,6543
483.1,6560
483.2,6577
483.3,6592
483.4,6607
483.5,6624
483.6,6642
483.7,6661
483.8,6679
483.9,6695
484.0,6710
484.1,6728
484.2,6747
484.3,6765
484.4,6781
484.5,6797
484.6,6814
484.7,6833
484.8,6851
484.9,6870
485.0,6886
485.1,6902
485.2,6919
485.3,6937
485.4,6956
485.5,6974
485.6,6991
485.7,7007
485.8,7026
485.9,7047
486.0,7069
486.1,7089
486.2,7110
486.3,7132
486.4,7157
486.5,7183
486.6,7209
486.7,7232
486.8,7254
486.9,7280
487.0,7306
487.1,7330
487.2,7352
487.3,7371
487.4,7390
487.5,7410
487.6,7429
487.7,7448
487.8,7464
487.9,7478
488.0,7493
488.1,7510
488.2,7527
488.3,7542
488.4,7557
488.5,7574
488.6,7592
488.7,7611
488.8,7629
488.9,7647
489.0,7668
489.1,7688
489.2,7711
489.3,7733
489.4,7754
489.5,7774
489.6,7795
489.7,7817
489.8,7838
489.9,7856
490.0,7874
490.1,7893
490.2,7910
490.3,7927
490.4,7944
490.5,7959
490.6,7973
490.7,7988
490.8,8002
490.9,8017
491.0,8032
491.1,8045
491.2,8057
491.3,8068
491.4,8078
491.5,8087
491.6,8095
491.7,8102
491.8,8110
491.9,8117
492.0,8125
492.1,8133
492.2,8142
492.3,8151
492.4,8162
492.5,8178
492.6,8195
492.7,8212
492.8,8229
492.9,8248
493.0,8267
493.1,8287
493.2,8307
493.3,8326
493.4,8345
493.5,8365
493.6,8383
493.7,8401
493.8,8419
493.9,8436
494.0,8454
494.1,8471
494.2,8490
494.3,8507
494.4,8525
494.5,8544
494.6,8563
494.7,8581
494.8,8600
494.9,8620
495.0,8641
495.1,8663
495.2,8685
495.3,8709
495.4,8734
495.5,8759
495.6,8785
495.7,8811
495.8,8835
495.9,8860
496.0,8884
496.1,8907
496.2,8930
496.3,8954
496.4,8975
496.5,8997
496.6,9018
496.7,9040
496.8,9061
496.9,9082
497.0,9104
497.1,9125
497.2,9145
497.3,9165
497.4,9184
497.5,9200
497.6,9216
497.7,9231
497.8,9245
497.9,9258
498.0,9269
498.1,9281
498.2,9292
498.3,9303
498.4,9315
498.5,9328
498.6,9340
498.7,9353
498.8,9366
498.9,9380
499.0,9393
499.1,9407
499.2,9420
499.3,9433
499.4,9447
499.5,9460
499.6,9472
499.7,9484
499.8,9495
499.9,9507
500.0,9519
500.1,9531
500.2,9544
500.3,9555
500.4,9567
500.5,9580
500.6,9593
500.7,9608
500.8,9624
500.9,9640
501.0,9656
501.1,9674
501.2,9694
501.3,9714
501.4,9733
501.5,9755
501.6,9779
501.7,9804
501.8,9829
501.9,9854
502.0,9878
502.1,9903
502.2,9929
502.3,9956
502.4,9985
502.5,10012
502.6,10042
502.7,10073
502.8,10106
502.9,10140
503.0,10176
503.1,10212
503.2,10250
503.3,10290
503.4,10331
503.5,10372
503.6,10412
503.7,10451
503.8,10489
503.9,10529
504.0,10569
504.1,10608
504.2,10644
504.3,10682
504.4,10721
504.5,10759
504.6,10799
504.7,10839
504.8,10879
504.9,10920
505.0,10962
505.1,11005
505.2,11048
505.3,11090
505.4,11133
505.5,11177
505.6,11222
505.7,11266
505.8,11310
505.9,11351
506.0,11391
506.1,11431
506.2,11469
506.3,11505
506.4,11539
506.5,11569
506.6,11598
506.7,11625
506.8,11650
506.9,11674
507.0,11697
507.1,11720
507.2,11742
507.3,11763
507.4,11783
507.5,11803
507.6,11823
507.7,11843
507.8,11863
507.9,11882
508.0,11901
508.1,11920
508.2,11938
508.3,11956
508.4,11972
508.5,11989
508.6,12004
508.7,12021
508.8,12037
508.9,12052
509.0,12065
509.1,12079
509.2,12092
509.3,12105
509.4,12120
509.5,12133
509.6,12145
509.7,12157
509.8,12171
509.9,12184
510.0,12195
510.1,12205
510.2,12215
510.3,12225
510.4,12235
510.5,12242
510.6,12248
510.7,12253
510.8,12257
510.9,12263
511.0,12270
511.1,12276
511.2,12283
511.3,12289
511.4,12299
511.5,12309
511.6,12319
511.7,12329
511.8,12338
511.9,12349
512.0,12359
512.1,12370
512.2,12381
512.3,12390
512.4,12400
512.5,12407
512.6,12416
512.7,12425
512.8,12432
512.9,12440
513.0,12447
513.1,12456
513.2,12465
513.3,12473
513.4,12480
513.5,12488
513.6,12498
513.7,12510
513.8,12522
513.9,12532
514.0,12543
514.1,12555
514.2,12567
514.3,12582
514.4,12596
514.5,12608
514.6,12619
514.7,12630
514.8,12643
514.9,12656
515.0,12666
515.1,12676
515.2,12686
515.3,12695
515.4,12707
515.5,12721
515.6,12733
515.7,12746
515.8,12759
515.9,12775
516.0,12791
516.1,12807
516.2,12824
516.3,12841
516.4,12859
516.5,12877
516.6,12897
516.7,12915
516.8,12935
516.9,12955
517.0,12974
517.1,12995
517.2,13017
517.3,13037
517.4,13056
517.5,13076
517.6,13097
517.7,13119
517.8,13137
517.9,13153
518.0,13170
518.1,13189
518.2,13207
518.3,13223
518.4,13238
518.5,13253
518.6,13268
518.7,13285
518.8,13301
518.9,13313
519.0,13325
519.1,13334
519.2,13343
519.3,13354
519.4,13364
519.5,13370
519.6,13375
519.7,13378
519.8,13383
519.9,13386
520.0,13387
520.1,13385
520.2,13380
520.3,13374
520.4,13368
520.5,13360
520.6,13347
520.7,13332
520.8,13315
520.9,13299
521.0,13281
521.1,13262
521.2,13241
521.3,13220
521.4,13200
521.5,13182
521.6,13165
521.7,13148
521.8,13130
521.9,13113
522.0,13096
522.1,13082
522.2,13069
522.3,13056
522.4,13042
522.5,13030
522.6,13019
522.7,13009
522.8,12997
522.9,12985
523.0,12972
523.1,12961
523.2,12949
523.3,12935
523.4,12920
523.5,12905
523.6,12890
523.7,12877
523.8,12866
523.9,12855
524.0,12845
524.1,12838
524.2,12832
524.3,12830
524.4,12831
524.5,12831
524.6,12832
524.7,12834
524.8,12840
524.9,12845
525.0,12850
525.1,12856
525.2,12863
525.3,12871
525.4,12881
525.5,12892
525.6,12902
525.7,12913
525.8,12924
525.9,12938
526.0,12950
526.1,12960
526.2,12969
526.3,12978
526.4,12987
526.5,12997
526.6,13006
526.7,13013
526.8,13021
526.9,13027
527.0,13033
527.1,13040
527.2,13048
527.3,13054
527.4,13059
527.5,13063
527.6,13068
527.7,13074
527.8,13077
527.9,13079
528.0,13082
528.1,13087
528.2,13091
528.3,13093
528.4,13096
528.5,13099
528.6,13101
528.7,13104
528.8,13106
528.9,13105
529.0,13102
529.1,13100
529.2,13097
529.3,13094
529.4,13090
529.5,13082
529.6,13075
529.7,13068
529.8,13061
529.9,13056
530.0,13052
530.1,13045
530.2,13037
530.3,13029
530.4,13022
530.5,13015
530.6,13007
530.7,12998
530.8,12988
530.9,12980
531.0,12972
531.1,12964
531.2,12956
531.3,12949
531.4,12942
531.5,12938
531.6,12934
531.7,12930
531.8,12925
531.9,12922
532.0,12920
532.1,12920
532.2,12921
532.3,12920
532.4,12919
532.5,12920
532.6,12921
532.7,12923
532.8,12924
532.9,12926
533.0,12929
533.1,12934
533.2,12939
533.3,12943
533.4,12947
533.5,12952
533.6,12958
533.7,12967
533.8,12977
533.9,12986
534.0,12997
534.1,13008
534.2,13020
534.3,13034
534.4,13048
534.5,13062
534.6,13076
534.7,13091
534.8,13105
534.9,13120
535.0,13134
535.1,13146
535.2,13158
535.3,13170
535.4,13184
535.5,13197
535.6,13207
535.7,13217
535.8,13228
535.9,13241
536.0,13253
536.1,13265
536.2,13276
536.3,13286
536.4,13296
536.5,13307
536.6,13317
536.7,13323
536.8,13327
536.9,13329
537.0,13328
537.1,13328
537.2,13326
537.3,13320
537.4,13313
537.5,13306
537.6,13302
537.7,13298
537.8,13293
537.9,13288
538.0,13284
538.1,13283
538.2,13283
538.3,13281
538.4,13280
538.5,13278
538.6,13276
538.7,13274
538.8,13274
538.9,13274
539.0,13271
539.1,13268
539.2,13265
539.3,13264
539.4,13261
539.5,13256
539.6,13248
539.7,13239
539.8,13228
539.9,13218
540.0,13209
540.1,13196
540.2,13182
540.3,13168
540.4,13156
540.5,13145
540.6,13133
540.7,13123
540.8,13113
540.9,13106
541.0,13099
541.1,13089
541.2,13078
541.3,13066
541.4,13053
541.5,13040
541.6,13027
541.7,13009
541.8,12990
541.9,12969
542.0,12947
542.1,12927
542.2,12905
542.3,12880
542.4,12853
542.5,12824
542.6,12798
542.7,12769
542.8,12734
542.9,12698
543.0,12658
543.1,12617
543.2,12579
543.3,12540
543.4,12494
543.5,12447
543.6,12400
543.7,12352
543.8,12308
543.9,12266
544.0,12218
544.1,12169
544.2,12121
544.3,12077
544.4,12035
544.5,11993
544.6,11949
544.7,11907
544.8,11867
544.9,11830
545.0,11796
545.1,11761
545.2,11730
545.3,11698
545.4,11670
545.5,11644
545.6,11616
545.7,11589
545.8,11566
545.9,11546
546.0,11527
546.1,11508
546.2,11492
546.3,11480
546.4,11471
546.5,11465
546.6,11465
546.7,11469
546.8,11473
546.9,11481
547.0,11492
547.1,11508
547.2,11525
547.3,11540
547.4,11556
547.5,11572
547.6,11590
547.7,11607
547.8,11626
547.9,11646
548.0,11662
548.1,11678
548.2,11692
548.3,11707
548.4,11724
548.5,11742
548.6,11757
548.7,11772
548.8,11786
548.9,11804
549.0,11820
549.1,11833
549.2,11845
549.3,11858
549.4,11870
549.5,11884
549.6,11896
549.7,11905
549.8,11912
549.9,11918
550.0,11922
550.1,11928
550.2,11935
550.3,11938
550.4,11940
550.5,11941
550.6,11941
550.7,11942
550.8,11942
550.9,11939
551.0,11934
551.1,11927
551.2,11918
551.3,11910
551.4,11901
551.5,11886
551.6,11870
551.7,11853
551.8,11834
551.9,11818
552.0,11801
552.1,11779
552.2,11756
552.3,11731
552.4,11706
552.5,11683
552.6,11660
552.7,11633
552.8,11606
552.9,11578
553.0,11551
553.1,11527
553.2,11502
553.3,11474
553.4,11444
553.5,11413
553.6,11380
553.7,11347
553.8,11312
553.9,11271
554.0,11228
554.1,11183
554.2,11135
554.3,11089
554.4,11043
554.5,10994
554.6,10944
554.7,10895
554.8,10847
554.9,10804
555.0,10761
555.1,10716
555.2,10672
555.3,10629
555.4,10593
555.5,10557
555.6,10517
555.7,10479
555.8,10443
555.9,10408
556.0,10374
556.1,10343
556.2,10315
556.3,10284
556.4,10254
556.5,10224
556.6,10196
556.7,10168
556.8,10137
556.9,10108
557.0,10079
557.1,10053
557.2,10028
557.3,10008
557.4,9991
557.5,9973
557.6,9958
557.7,9946
557.8,9935
557.9,9929
558.0,9926
558.1,9921
558.2,9918
558.3,9915
558.4,9917
558.5,9920
558.6,9921
558.7,9922
558.8,9925
558.9,9927
559.0,9929
559.1,9933
559.2,9937
559.3,9937
559.4,9935
559.5,9933
559.6,9934
559.7,9933
559.8,9929
559.9,9924
560.0,9918
560.1,9910
560.2,9902
560.3,9894
560.4,9886
560.5,9872
560.6,9856
560.7,9838
560.8,9818
560.9,9799
561.0,9781
561.1,9758
561.2,9734
561.3,9711
561.4,9694
561.5,9678
561.6,9660
561.7,9643
561.8,9628
561.9,9615
562.0,9605
562.1,9596
562.2,9586
562.3,9576
562.4,9569
562.5,9561
562.6,9558
562.7,9555
562.8,9551
562.9,9547
563.0,9545
563.1,9544
563.2,9549
563.3,9555
563.4,9561
563.5,9569
563.6,9581
563.7,9596
563.8,9617
563.9,9641
564.0,9667
564.1,9696
564.2,9729
564.3,9766
564.4,9808
564.5,9852
564.6,9894
564.7,9938
564.8,9983
564.9,10029
565.0,10078
565.1,10127
565.2,10173
565.3,10218
565.4,10264
565.5,10309
565.6,10357
565.7,10404
565.8,10447
565.9,10489
566.0,10530
566.1,10570
566.2,10611
566.3,10651
566.4,10686
566.5,10719
566.6,10751
566.7,10780
566.8,10811
566.9,10839
567.0,10863
567.1,10885
567.2,10904
567.3,10923
567.4,10943
567.5,10963
567.6,10978
567.7,10990
567.8,11003
567.9,11017
568.0,11029
568.1,11036
568.2,11041
568.3,11044
568.4,11045
568.5,11043
568.6,11041
568.7,11039
568.8,11030
568.9,11020
569.0,11009
569.1,11000
569.2,10989
569.3,10975
569.4,10960
569.5,10943
569.6,10926
569.7,10908
569.8,10892
569.9,10877
570.0,10858
570.1,10840
570.2,10822
570.3,10804
570.4,10789
570.5,10776
570.6,10761
570.7,10747
570.8,10734
570.9,10724
571.0,10713
571.1,10700
571.2,10686
571.3,10672
571.4,10658
571.5,10644
571.6,10632
571.7,10620
571.8,10604
571.9,10589
572.0,10572
572.1,10559
572.2,10544
572.3,10525
572.4,10505
572.5,10483
572.6,10459
572.7,10433
572.8,10408
572.9,10382
573.0,10353
573.1,10323
573.2,10293
573.3,10264
573.4,10236
573.5,10209
573.6,10179
573.7,10149
573.8,10119
573.9,10092
574.0,10063
574.1,10028
574.2,9992
574.3,9953
574.4,9913
574.5,9874
574.6,9834
574.7,9792
574.8,9748
574.9,9704
575.0,9659
575.1,9616
575.2,9572
575.3,9527
575.4,9481
575.5,9435
575.6,9388
575.7,9343
575.8,9297
575.9,9250
576.0,9205
576.1,9162
576.2,9120
576.3,9082
576.4,9044
576.5,9006
576.6,8969
576.7,8934
576.8,8901
576.9,8872
577.0,8843
577.1,8813
577.2,8781
577.3,8751
577.4,8723
577.5,8697
577.6,8673
577.7,8651
577.8,8628
577.9,8606
578.0,8585
578.1,8561
578.2,8537
578.3,8516
578.4,8496
578.5,8472
578.6,8449
578.7,8426
578.8,8403
578.9,8381
579.0,8361
579.1,8342
579.2,8325
579.3,8308
579.4,8295
579.5,8283
579.6,8273
579.7,8264
579.8,8255
579.9,8247
580.0,8240
580.1,8233
580.2,8226
580.3,8220
580.4,8214
580.5,8205
580.6,8195
580.7,8185
580.8,8175
580.9,8167
581.0,8157
581.1,8145
581.2,8130
581.3,8115
581.4,8101
581.5,8085
581.6,8074
581.7,8062
581.8,8047
581.9,8031
582.0,8014
582.1,7999
582.2,7984
582.3,7972
582.4,7960
582.5,7944
582.6,7929
582.7,7914
582.8,7899
582.9,7883
583.0,7871
583.1,7858
583.2,7843
583.3,7825
583.4,7808
583.5,7792
583.6,7779
583.7,7764
583.8,7746
583.9,7728
584.0,7709
584.1,7690
584.2,7670
584.3,7650
584.4,7631
584.5,7613
584.6,7590
584.7,7565
584.8,7543
584.9,7521
585.0,7501
585.1,7481
585.2,7459
585.3,7439
585.4,7422
585.5,7404
585.6,7389
585.7,7377
585.8,7365
585.9,7350
586.0,7336
586.1,7323
586.2,7309
586.3,7295
586.4,7281
586.5,7266
586.6,7248
586.7,7229
586.8,7211
586.9,7190
587.0,7168
587.1,7147
587.2,7125
587.3,7098
587.4,7073
587.5,7047
587.6,7022
587.7,6994
587.8,6968
587.9,6945
588.0,6920
588.1,6898
588.2,6875
588.3,6853
588.4,6834
588.5,6815
588.6,6794
588.7,6773
588.8,6754
588.9,6735
589.0,6716
589.1,6698
589.2,6681
589.3,6663
589.4,6647
589.5,6629
589.6,6614
589.7,6599
589.8,6585
589.9,6571
590.0,6553
590.1,6538
590.2,6521
590.3,6504
590.4,6487
590.5,6470
590.6,6452
590.7,6435
590.8,6419
590.9,6403
591.0,6391
591.1,6383
591.2,6376
591.3,6369
591.4,6366
591.5,6364
591.6,6365
591.7,6367
591.8,6374
591.9,6382
592.0,6390
592.1,6399
592.2,6409
592.3,6418
592.4,6430
592.5,6441
592.6,6451
592.7,6462
592.8,6471
592.9,6479
593.0,6486
593.1,6496
593.2,6506
593.3,6514
593.4,6524
593.5,6535
593.6,6545
593.7,6556
593.8,6570
593.9,6585
594.0,6599
594.1,6613
594.2,6626
594.3,6638
594.4,6649
594.5,6661
594.6,6672
594.7,6679
594.8,6685
594.9,6688
595.0,6689
595.1,6690
595.2,6688
595.3,6682
595.4,6675
595.5,6666
595.6,6654
595.7,6639
595.8,6623
595.9,6607
596.0,6590
596.1,6568
596.2,6543
596.3,6519
596.4,6493
596.5,6469
596.6,6442
596.7,6410
596.8,6379
596.9,6347
597.0,6312
597.1,6277
597.2,6244
597.3,6210
597.4,6174
597.5,6134
597.6,6096
597.7,6059
597.8,6022
597.9,5986
598.0,5950
598.1,5914
598.2,5878
598.3,5843
598.4,5805
598.5,5769
598.6,5737
598.7,5705
598.8,5672
598.9,5638
599.0,5608
599.1,5580
599.2,5553
599.3,5528
599.4,5507
599.5,5486
599.6,5468
599.7,5451
599.8,5437
599.9,5427
600.0,5419
600.1,5412
600.2,5407
600.3,5405
600.4,5406
600.5,5410
600.6,5417
600.7,5427
600.8,5436
600.9,5447
601.0,5460
601.1,5472
601.2,5485
601.3,5499
601.4,5513
601.5,5526
601.6,5538
601.7,5549
601.8,5561
601.9,5575
602.0,5589
602.1,5601
602.2,5612
602.3,5624
602.4,5635
602.5,5645
602.6,5657
602.7,5667
602.8,5675
602.9,5682
603.0,5687
603.1,5691
603.2,5694
603.3,5697
603.4,5699
603.5,5697
603.6,5694
603.7,5688
603.8,5680
603.9,5672
604.0,5662
604.1,5648
604.2,5631
604.3,5614
604.4,5597
604.5,5578
604.6,5559
604.7,5540
604.8,5519
604.9,5498
605.0,5475
605.1,5453
605.2,5430
605.3,5408
605.4,5384
605.5,5358
605.6,5333
605.7,5309
605.8,5285
605.9,5259
606.0,5235
606.1,5212
606.2,5188
606.3,5165
606.4,5141
606.5,5121
606.6,5103
606.7,5084
606.8,5065
606.9,5046
607.0,5031
607.1,5018
607.2,5006
607.3,4996
607.4,4989
607.5,4983
607.6,4976
607.7,4970
607.8,4966
607.9,4962
608.0,4961
608.1,4959
608.2,4958
608.3,4956
608.4,4957
608.5,4958
608.6,4961
608.7,4968
608.8,4975
608.9,4982
609.0,4992
609.1,5001
609.2,5010
609.3,5021
609.4,5034
609.5,5048
609.6,5059
609.7,5070
609.8,5080
609.9,5090
610.0,5098
610.1,5107
610.2,5115
610.3,5121
610.4,5125
610.5,5126
610.6,5126
610.7,5127
610.8,5126
610.9,5122
611.0,5118
611.1,5112
611.2,5104
611.3,5095
611.4,5087
611.5,5079
611.6,5068
611.7,5055
611.8,5042
611.9,5028
612.0,5012
612.1,4997
612.2,4981
612.3,4964
612.4,4946
612.5,4928
612.6,4909
612.7,4891
612.8,4874
612.9,4858
613.0,4840
613.1,4824
613.2,4808
613.3,4792
613.4,4779
613.5,4765
613.6,4751
613.7,4737
613.8,4723
613.9,4708
614.0,4694
614.1,4681
614.2,4668
614.3,4653
614.4,4637
614.5,4622
614.6,4606
614.7,4591
614.8,4576
614.9,4563
615.0,4548
615.1,4533
615.2,4518
615.3,4505
615.4,4494
615.5,4483
615.6,4471
615.7,4460
615.8,4450
615.9,4440
616.0,4430
616.1,4421
616.2,4412
616.3,4402
616.4,4392
616.5,4381
616.6,4369
616.7,4356
616.8,4346
616.9,4334
617.0,4322
617.1,4310
617.2,4298
617.3,4287
617.4,4274
617.5,4264
617.6,4254
617.7,4243
617.8,4231
617.9,4219
618.0,4208
618.1,4199
618.2,4190
618.3,4179
618.4,4168
618.5,4158
618.6,4148
618.7,4139
618.8,4130
618.9,4123
619.0,4117
619.1,4109
619.2,4102
619.3,4095
619.4,4090
619.5,4087
619.6,4085
619.7,4081
619.8,4078
619.9,4074
620.0,4071
620.1,4067
620.2,4066
620.3,4065
620.4,4062
620.5,4059
620.6,4056
620.7,4054
620.8,4052
620.9,4053
621.0,4055
621.1,4056
621.2,4057
621.3,4059
621.4,4061
621.5,4063
621.6,4066
621.7,4070
621.8,4071
621.9,4071
622.0,4072
622.1,4072
622.2,4073
622.3,4073
622.4,4071
622.5,4069
622.6,4067
622.7,4063
622.8,4057
622.9,4052
623.0,4045
623.1,4034
623.2,4022
623.3,4008
623.4,3995
623.5,3980
623.6,3967
623.7,3954
623.8,3941
623.9,3928
624.0,3917
624.1,3905
624.2,3895
624.3,3886
624.4,3879
624.5,3872
624.6,3864
624.7,3856
624.8,3849
624.9,3843
625.0,3838
625.1,3832
625.2,3827
625.3,3823
625.4,3819
625.5,3815
625.6,3813
625.7,3811
625.8,3808
625.9,3806
626.0,3804
626.1,3803
626.2,3802
626.3,3802
626.4,3804
626.5,3805
626.6,3806
626.7,3808
626.8,3810
626.9,3814
627.0,3817
627.1,3819
627.2,3820
627.3,3820
627.4,3819
627.5,3816
627.6,3814
627.7,3810
627.8,3803
627.9,3794
628.0,3784
628.1,3772
628.2,3760
628.3,3748
628.4,3735
628.5,3719
628.6,3700
628.7,3682
628.8,3662
628.9,3641
629.0,3621
629.1,3601
629.2,3578
629.3,3553
629.4,3526
629.5,3501
629.6,3477
629.7,3453
629.8,3426
629.9,3397
630.0,3369
630.1,3341
630.2,3312
630.3,3282
630.4,3255
630.5,3229
630.6,3203
630.7,3178
630.8,3151
630.9,3128
631.0,3108
631.1,3088
631.2,3069
631.3,3052
631.4,3036
631.5,3021
631.6,3006
631.7,2994
631.8,2984
631.9,2974
632.0,2966
632.1,2960
632.2,2957
632.3,2956
632.4,2959
632.5,2965
632.6,2972
632.7,2983
632.8,2997
632.9,3014
633.0,3032
633.1,3052
633.2,3073
633.3,3093
633.4,3115
633.5,3136
633.6,3157
633.7,3179
633.8,3202
633.9,3224
634.0,3243
634.1,3262
634.2,3280
634.3,3299
634.4,3319
634.5,3338
634.6,3355
634.7,3370
634.8,3387
634.9,3403
635.0,3418
635.1,3435
635.2,3453
635.3,3469
635.4,3484
635.5,3498
635.6,3512
635.7,3526
635.8,3539
635.9,3552
636.0,3562
636.1,3572
636.2,3580
636.3,3587
636.4,3594
636.5,3601
636.6,3607
636.7,3611
636.8,3614
636.9,3616
637.0,3617
637.1,3618
637.2,3618
637.3,3616
637.4,3613
637.5,3609
637.6,3604
637.7,3599
637.8,3593
637.9,3588
638.0,3580
638.1,3572
638.2,3564
638.3,3555
638.4,3546
638.5,3536
638.6,3524
638.7,3511
638.8,3497
638.9,3483
639.0,3470
639.1,3458
639.2,3446
639.3,3432
639.4,3418
639.5,3405
639.6,3391
639.7,3378
639.8,3367
639.9,3356
640.0,3342
640.1,3326
640.2,3312
640.3,3299
640.4,3287
640.5,3275
640.6,3261
640.7,3248
640.8,3235
640.9,3219
641.0,3204
641.1,3190
641.2,3175
641.3,3157
641.4,3137
641.5,3117
641.6,3096
641.7,3076
641.8,3054
641.9,3034
642.0,3017
642.1,2999
642.2,2982
642.3,2964
642.4,2947
642.5,2934
642.6,2921
642.7,2907
642.8,2893
642.9,2880
643.0,2867
643.1,2853
643.2,2840
643.3,2828
643.4,2813
643.5,2800
643.6,2784
643.7,2769
643.8,2754
643.9,2739
644.0,2725
644.1,2709
644.2,2694
644.3,2679
644.4,2665
644.5,2651
644.6,2639
644.7,2628
644.8,2617
644.9,2604
645.0,2593
645.1,2581
645.2,2571
645.3,2560
645.4,2546
645.5,2533
645.6,2518
645.7,2503
645.8,2487
645.9,2472
646.0,2456
646.1,2439
646.2,2421
646.3,2401
646.4,2382
646.5,2362
646.6,2343
646.7,2322
646.8,2298
646.9,2274
647.0,2249
647.1,2222
647.2,2195
647.3,2169
647.4,2142
647.5,2114
647.6,2084
647.7,2056
647.8,2030
647.9,2005
648.0,1981
648.1,1957
648.2,1935
648.3,1914
648.4,1895
648.5,1877
648.6,1860
648.7,1845
648.8,1829
648.9,1813
649.0,1799
649.1,1785
649.2,1771
649.3,1756
649.4,1742
649.5,1727
649.6,1713
649.7,1698
649.8,1684
649.9,1671
650.0,1659
650.1,1647
650.2,1635
650.3,1625
650.4,1618
650.5,1613
650.6,1610
650.7,1609
650.8,1610
650.9,1614
651.0,1620
651.1,1629
651.2,1640
651.3,1653
651.4,1666
651.5,1679
651.6,1692
651.7,1705
651.8,1718
651.9,1732
652.0,1744
652.1,1754
652.2,1763
652.3,1771
652.4,1779
652.5,1787
652.6,1795
652.7,1802
652.8,1808
652.9,1814
653.0,1820
653.1,1825
653.2,1829
653.3,1834
653.4,1838
653.5,1843
653.6,1847
653.7,1851
653.8,1856
653.9,1860
654.0,1865
654.1,1869
654.2,1873
654.3,1877
654.4,1880
654.5,1883
654.6,1886
654.7,1888
654.8,1889
654.9,1890
655.0,1890
655.1,1891
655.2,1891
655.3,1892
655.4,1893
655.5,1896
655.6,1898
655.7,1900
655.8,1902
655.9,1903
656.0,1904
656.1,1906
656.2,1908
656.3,1909
656.4,1911
656.5,1912
656.6,1912
656.7,1914
656.8,1916
656.9,1918
657.0,1919
657.1,1920
657.2,1920
657.3,1920
657.4,1921
657.5,1921
657.6,1919
657.7,1916
657.8,1913
657.9,1909
658.0,1904
658.1,1898
658.2,1892
658.3,1882
658.4,1872
658.5,1861
658.6,1848
658.7,1834
658.8,1818
658.9,1802
659.0,1784
659.1,1764
659.2,1745
659.3,1726
659.4,1707
659.5,1687
659.6,1664
659.7,1641
659.8,1618
659.9,1594
660.0,1568
660.1,1542
660.2,1516
660.3,1487
660.4,1457
660.5,1423
660.6,1391
660.7,1358
660.8,1324
660.9,1289
661.0,1255
661.1,1220
661.2,1185
661.3,1148
661.4,1113
661.5,1080
661.6,1046
661.7,1013
661.8,978
661.9,947
662.0,916
662.1,886
662.2,856
662.3,825
662.4,798
662.5,771
662.6,746
662.7,720
662.8,696
662.9,675
663.0,654
663.1,634
663.2,617
663.3,601
663.4,586
663.5,571
663.6,558
663.7,546
663.8,535
663.9,525
664.0,515
664.1,505
664.2,497
664.3,489
664.4,481
664.5,475
664.6,470
664.7,466
664.8,461
664.9,457
665.0,453
665.1,450
665.2,448
665.3,447
665.4,446
665.5,447
665.6,447
665.7,449
665.8,451
665.9,455
666.0,460
666.1,466
666.2,473
666.3,480
666.4,487
666.5,494
666.6,502
666.7,512
666.8,522
666.9,533
667.0,544
667.1,557
667.2,570
667.3,583
667.4,596
667.5,612
667.6,628
667.7,643
667.8,660
667.9,676
668.0,694
668.1,712
668.2,730
668.3,749
668.4,770
668.5,792
668.6,813
668.7,834
668.8,856
668.9,877
669.0,898
669.1,918
669.2,937
669.3,955
669.4,971
669.5,985
669.6,999
669.7,1012
669.8,1024
669.9,1034
670.0,1042
670.1,1050
670.2,1058
670.3,1065
670.4,1071
670.5,1077
670.6,1081
670.7,1084
670.8,1087
670.9,1088
671.0,1089
671.1,1088
671.2,1086
671.3,1082
671.4,1078
671.5,1071
671.6,1064
671.7,1056
671.8,1047
671.9,1038
672.0,1027
672.1,1017
672.2,1006
672.3,996
672.4,984
672.5,972
672.6,960
672.7,948
672.8,935
672.9,923
673.0,911
673.1,898
673.2,885
673.3,871
673.4,858
673.5,846
673.6,834
673.7,823
673.8,813
673.9,803
674.0,796
674.1,790
674.2,785
674.3,783
674.4,784
674.5,785
674.6,789
674.7,795
674.8,801
674.9,810
675.0,819
675.1,828
675.2,836
675.3,843
675.4,849
675.5,855
675.6,860
675.7,864
675.8,867
675.9,871
676.0,876
676.1,881
676.2,887
676.3,895
676.4,905
676.5,916
676.6,927
676.7,937
676.8,949
676.9,960
677.0,970
677.1,979
677.2,987
677.3,995
677.4,1000
677.5,1004
677.6,1007
677.7,1010
677.8,1011
677.9,1011
678.0,1010
678.1,1008
678.2,1005
678.3,1001
678.4,997
678.5,993
678.6,988
678.7,982
678.8,978
678.9,973
679.0,969
679.1,965
679.2,961
679.3,957
679.4,951
679.5,945
679.6,938
679.7,931
679.8,924
679.9,916
680.0,907
680.1,899
680.2,892
680.3,886
680.4,880
680.5,875
680.6,871
680.7,867
680.8,863
680.9,859
681.0,854
681.1,849
681.2,842
681.3,835
681.4,827
681.5,820
681.6,813
681.7,805
681.8,799
681.9,794
682.0,790
682.1,787
682.2,786
682.3,786
682.4,787
682.5,788
682.6,790
682.7,792
682.8,796
682.9,799
683.0,803
683.1,807
683.2,811
683.3,815
683.4,817
683.5,819
683.6,821
683.7,821
683.8,821
683.9,820
684.0,818
684.1,816
684.2,813
684.3,810
684.4,808
684.5,806
684.6,804
684.7,803
684.8,802
684.9,802
685.0,803
685.1,805
685.2,807
685.3,809
685.4,812
685.5,815
685.6,819
685.7,824
685.8,828
685.9,833
686.0,837
686.1,841
686.2,847
686.3,853
686.4,859
686.5,867
686.6,875
686.7,884
686.8,893
686.9,903
687.0,916
687.1,929
687.2,943
687.3,957
687.4,973
687.5,991
687.6,1007
687.7,1024
687.8,1042
687.9,1061
688.0,1080
688.1,1098
688.2,1118
688.3,1137
688.4,1157
688.5,1176
688.6,1194
688.7,1211
688.8,1229
688.9,1246
689.0,1262
689.1,1278
689.2,1295
689.3,1312
689.4,1328
689.5,1344
689.6,1360
689.7,1377
689.8,1393
689.9,1407
690.0,1421
690.1,1432
690.2,1443
690.3,1451
690.4,1456
690.5,1461
690.6,1464
690.7,1465
690.8,1466
690.9,1467
691.0,1467
691.1,1465
691.2,1463
691.3,1461
691.4,1457
691.5,1451
691.6,1445
691.7,1437
691.8,1427
691.9,1415
692.0,1403
692.1,1389
692.2,1376
692.3,1361
692.4,1344
692.5,1327
692.6,1310
692.7,1291
692.8,1270
692.9,1249
693.0,1226
693.1,1203
693.2,1177
693.3,1152
693.4,1127
693.5,1102
693.6,1077
693.7,1050
693.8,1024
693.9,998
694.0,972
694.1,944
694.2,914
694.3,885
694.4,855
694.5,824
694.6,792
694.7,760
694.8,729
694.9,700
695.0,670
695.1,643
695.2,618
695.3,594
695.4,572
695.5,549
695.6,530
695.7,511
695.8,494
695.9,476
696.0,460
696.1,445
696.2,430
696.3,417
696.4,404
696.5,393
696.6,384
696.7,375
696.8,367
696.9,361
697.0,355
697.1,350
697.2,347
697.3,345
697.4,345
697.5,346
697.6,348
697.7,352
697.8,357
697.9,364
698.0,372
698.1,382
698.2,393
698.3,406
698.4,418
698.5,431
698.6,445
698.7,460
698.8,475
698.9,489
699.0,504
699.1,520
699.2,535
699.3,550
699.4,565
699.5,580
699.6,594
699.7,607
699.8,621
699.9,632
700.0,642
