Created as New Dataset,Sample 2516 By Analyst Date Thursday, December 19 2024
nm,INT
375.0,0
375.1,0
375.2,0
375.3,0
375.4,0
375.5,0
375.6,0
375.7,0
375.8,0
375.9,0
376.0,0
376.1,0
376.2,0
376.3,0
376.4,0
376.5,0
376.6,0
376.7,0
376.8,0
376.9,0
377.0,0
377.1,0
377.2,0
377.3,0
377.4,0
377.5,0
377.6,0
377.7,0
377.8,0
377.9,0
378.0,0
378.1,0
378.2,0
378.3,0
378.4,0
378.5,0
378.6,0
378.7,0
378.8,0
378.9,0
379.0,0
379.1,0
379.2,0
379.3,0
379.4,0
379.5,0
379.6,0
379.7,0
379.8,0
379.9,0
380.0,0
380.1,0
380.2,0
380.3,0
380.4,0
380.5,0
380.6,0
380.7,0
380.8,0
380.9,0
381.0,0
381.1,0
381.2,0
381.3,0
381.4,0
381.5,0
381.6,0
381.7,0
381.8,0
381.9,0
382.0,0
382.1,0
382.2,0
382.3,0
382.4,0
382.5,0
382.6,0
382.7,0
382.8,0
382.9,0
383.0,0
383.1,0
383.2,0
383.3,0
383.4,0
383.5,0
383.6,0
383.7,0
383.8,0
383.9,0
384.0,0
384.1,0
384.2,0
384.3,0
384.4,0
384.5,0
384.6,0
384.7,0
384.8,0
384.9,0
385.0,0
385.1,0
385.2,0
385.3,0
385.4,0
385.5,0
385.6,0
385.7,0
385.8,0
385.9,0
386.0,0
386.1,0
386.2,0
386.3,0
386.4,0
386.5,0
386.6,0
386.7,0
386.8,0
386.9,0
387.0,0
387.1,0
387.2,0
387.3,0
387.4,0
387.5,0
387.6,0
387.7,0
387.8,0
387.9,0
388.0,0
388.1,0
388.2,0
388.3,0
388.4,0
388.5,0
388.6,0
388.7,0
388.8,0
388.9,0
389.0,0
389.1,0
389.2,0
389.3,0
389.4,0
389.5,0
389.6,0
389.7,0
389.8,0
389.9,0
390.0,0
390.1,0
390.2,0
390.3,0
390.4,0
390.5,0
390.6,0
390.7,0
390.8,0
390.9,0
391.0,0
391.1,0
391.2,0
391.3,0
391.4,0
391.5,0
391.6,0
391.7,0
391.8,0
391.9,0
392.0,0
392.1,0
392.2,0
392.3,0
392.4,0
392.5,0
392.6,0
392.7,0
392.8,0
392.9,0
393.0,0
393.1,0
393.2,0
393.3,0
393.4,0
393.5,0
393.6,0
393.7,0
393.8,0
393.9,0
394.0,0
394.1,0
394.2,0
394.3,0
394.4,0
394.5,0
394.6,0
394.7,0
394.8,0
394.9,0
395.0,0
395.1,0
395.2,0
395.3,0
395.4,0
395.5,0
395.6,0
395.7,0
395.8,0
395.9,0
396.0,0
396.1,0
396.2,0
396.3,0
396.4,0
396.5,0
396.6,0
396.7,0
396.8,0
396.9,0
397.0,0
397.1,0
397.2,0
397.3,0
397.4,0
397.5,0
397.6,0
397.7,0
397.8,0
397.9,0
398.0,0
398.1,0
398.2,0
398.3,0
398.4,0
398.5,0
398.6,0
398.7,0
398.8,0
398.9,0
399.0,0
399.1,0
399.2,0
399.3,0
399.4,0
399.5,0
399.6,0
399.7,0
399.8,0
399.9,0
400.0,0
400.1,0
400.2,0
400.3,0
400.4,0
400.5,0
400.6,0
400.7,0
400.8,0
400.9,0
401.0,0
401.1,0
401.2,0
401.3,0
401.4,0
401.5,0
401.6,0
401.7,0
401.8,0
401.9,0
402.0,0
402.1,0
402.2,0
402.3,0
402.4,0
402.5,0
402.6,0
402.7,0
402.8,0
402.9,0
403.0,0
403.1,0
403.2,0
403.3,0
403.4,0
403.5,0
403.6,0
403.7,0
403.8,0
403.9,0
404.0,0
404.1,0
404.2,0
404.3,0
404.4,0
404.5,0
404.6,0
404.7,0
404.8,0
404.9,0
405.0,0
405.1,0
405.2,0
405.3,0
405.4,0
405.5,0
405.6,0
405.7,1
405.8,1
405.9,1
406.0,1
406.1,1
406.2,1
406.3,1
406.4,1
406.5,1
406.6,2
406.7,2
406.8,2
406.9,2
407.0,2
407.1,2
407.2,2
407.3,3
407.4,3
407.5,3
407.6,3
407.7,3
407.8,3
407.9,3
408.0,3
408.1,3
408.2,3
408.3,3
408.4,3
408.5,3
408.6,4
408.7,4
408.8,4
408.9,4
409.0,4
409.1,4
409.2,4
409.3,4
409.4,4
409.5,4
409.6,4
409.7,4
409.8,4
409.9,4
410.0,3
410.1,3
410.2,3
410.3,3
410.4,3
410.5,3
410.6,3
410.7,3
410.8,3
410.9,3
411.0,3
411.1,3
411.2,3
411.3,2
411.4,2
411.5,2
411.6,2
411.7,2
411.8,2
411.9,2
412.0,2
412.1,1
412.2,1
412.3,1
412.4,1
412.5,1
412.6,1
412.7,1
412.8,1
412.9,0
413.0,0
413.1,0
413.2,0
413.3,0
413.4,0
413.5,0
413.6,0
413.7,0
413.8,0
413.9,0
414.0,0
414.1,0
414.2,0
414.3,0
414.4,0
414.5,0
414.6,0
414.7,0
414.8,0
414.9,0
415.0,0
415.1,0
415.2,0
415.3,0
415.4,0
415.5,0
415.6,0
415.7,0
415.8,0
415.9,0
416.0,0
416.1,0
416.2,0
416.3,0
416.4,0
416.5,0
416.6,0
416.7,0
416.8,0
416.9,0
417.0,0
417.1,0
417.2,0
417.3,0
417.4,0
417.5,0
417.6,0
417.7,0
417.8,0
417.9,0
418.0,0
418.1,0
418.2,0
418.3,0
418.4,0
418.5,0
418.6,0
418.7,0
418.8,0
418.9,0
419.0,0
419.1,0
419.2,0
419.3,0
419.4,0
419.5,0
419.6,0
419.7,0
419.8,0
419.9,0
420.0,0
420.1,0
420.2,0
420.3,0
420.4,0
420.5,0
420.6,0
420.7,0
420.8,0
420.9,0
421.0,0
421.1,0
421.2,0
421.3,0
421.4,1
421.5,1
421.6,1
421.7,1
421.8,1
421.9,1
422.0,1
422.1,1
422.2,1
422.3,1
422.4,1
422.5,2
422.6,2
422.7,2
422.8,2
422.9,2
423.0,2
423.1,3
423.2,3
423.3,3
423.4,3
423.5,3
423.6,4
423.7,4
423.8,4
423.9,4
424.0,4
424.1,5
424.2,5
424.3,5
424.4,5
424.5,5
424.6,6
424.7,6
424.8,6
424.9,6
425.0,7
425.1,7
425.2,7
425.3,7
425.4,7
425.5,7
425.6,8
425.7,8
425.8,8
425.9,8
426.0,8
426.1,8
426.2,8
426.3,8
426.4,8
426.5,8
426.6,8
426.7,8
426.8,8
426.9,8
427.0,8
427.1,8
427.2,8
427.3,8
427.4,8
427.5,8
427.6,8
427.7,8
427.8,8
427.9,8
428.0,7
428.1,7
428.2,7
428.3,7
428.4,7
428.5,6
428.6,6
428.7,6
428.8,6
428.9,6
429.0,5
429.1,5
429.2,5
429.3,5
429.4,5
429.5,4
429.6,4
429.7,4
429.8,4
429.9,4
430.0,3
430.1,3
430.2,3
430.3,3
430.4,2
430.5,2
430.6,2
430.7,2
430.8,2
430.9,2
431.0,2
431.1,1
431.2,1
431.3,1
431.4,1
431.5,1
431.6,1
431.7,1
431.8,1
431.9,1
432.0,1
432.1,1
432.2,1
432.3,1
432.4,1
432.5,1
432.6,1
432.7,1
432.8,2
432.9,2
433.0,2
433.1,2
433.2,3
433.3,3
433.4,3
433.5,3
433.6,3
433.7,4
433.8,4
433.9,4
434.0,4
434.1,4
434.2,5
434.3,5
434.4,5
434.5,5
434.6,5
434.7,5
434.8,6
434.9,6
435.0,6
435.1,6
435.2,6
435.3,7
435.4,7
435.5,7
435.6,7
435.7,7
435.8,7
435.9,8
436.0,8
436.1,8
436.2,8
436.3,8
436.4,8
436.5,8
436.6,8
436.7,9
436.8,9
436.9,9
437.0,9
437.1,9
437.2,9
437.3,9
437.4,9
437.5,9
437.6,9
437.7,9
437.8,9
437.9,9
438.0,9
438.1,9
438.2,9
438.3,9
438.4,9
438.5,9
438.6,9
438.7,9
438.8,9
438.9,9
439.0,9
439.1,10
439.2,10
439.3,10
439.4,10
439.5,10
439.6,10
439.7,10
439.8,11
439.9,11
440.0,11
440.1,11
440.2,11
440.3,11
440.4,12
440.5,12
440.6,12
440.7,12
440.8,12
440.9,13
441.0,13
441.1,13
441.2,13
441.3,14
441.4,14
441.5,14
441.6,14
441.7,15
441.8,15
441.9,15
442.0,15
442.1,16
442.2,16
442.3,16
442.4,16
442.5,17
442.6,17
442.7,17
442.8,17
442.9,17
443.0,17
443.1,17
443.2,18
443.3,18
443.4,18
443.5,18
443.6,18
443.7,18
443.8,19
443.9,19
444.0,19
444.1,19
444.2,19
444.3,19
444.4,19
444.5,19
444.6,19
444.7,19
444.8,19
444.9,19
445.0,19
445.1,19
445.2,19
445.3,20
445.4,20
445.5,20
445.6,20
445.7,20
445.8,20
445.9,20
446.0,21
446.1,21
446.2,21
446.3,21
446.4,22
446.5,22
446.6,22
446.7,23
446.8,23
446.9,23
447.0,24
447.1,24
447.2,25
447.3,25
447.4,26
447.5,26
447.6,27
447.7,27
447.8,28
447.9,28
448.0,29
448.1,29
448.2,30
448.3,31
448.4,32
448.5,32
448.6,33
448.7,34
448.8,34
448.9,35
449.0,36
449.1,37
449.2,38
449.3,38
449.4,39
449.5,40
449.6,41
449.7,42
449.8,42
449.9,43
450.0,44
450.1,45
450.2,46
450.3,47
450.4,48
450.5,49
450.6,50
450.7,50
450.8,51
450.9,52
451.0,53
451.1,54
451.2,55
451.3,56
451.4,57
451.5,58
451.6,58
451.7,59
451.8,60
451.9,61
452.0,62
452.1,63
452.2,64
452.3,65
452.4,66
452.5,67
452.6,69
452.7,70
452.8,71
452.9,72
453.0,73
453.1,74
453.2,76
453.3,77
453.4,78
453.5,80
453.6,81
453.7,82
453.8,84
453.9,85
454.0,86
454.1,88
454.2,89
454.3,91
454.4,92
454.5,94
454.6,95
454.7,97
454.8,98
454.9,100
455.0,102
455.1,104
455.2,105
455.3,107
455.4,109
455.5,111
455.6,112
455.7,114
455.8,116
455.9,118
456.0,120
456.1,122
456.2,124
456.3,127
456.4,129
456.5,131
456.6,133
456.7,135
456.8,138
456.9,140
457.0,142
457.1,145
457.2,147
457.3,150
457.4,152
457.5,155
457.6,157
457.7,160
457.8,163
457.9,166
458.0,168
458.1,171
458.2,174
458.3,177
458.4,180
458.5,183
458.6,186
458.7,189
458.8,192
458.9,195
459.0,198
459.1,201
459.2,205
459.3,208
459.4,211
459.5,215
459.6,218
459.7,222
459.8,226
459.9,230
460.0,234
460.1,238
460.2,242
460.3,246
460.4,250
460.5,255
460.6,259
460.7,264
460.8,268
460.9,273
461.0,277
461.1,282
461.2,287
461.3,292
461.4,297
461.5,301
461.6,307
461.7,312
461.8,318
461.9,323
462.0,329
462.1,335
462.2,341
462.3,347
462.4,353
462.5,359
462.6,365
462.7,372
462.8,378
462.9,385
463.0,392
463.1,398
463.2,405
463.3,412
463.4,419
463.5,426
463.6,433
463.7,440
463.8,447
463.9,454
464.0,462
464.1,470
464.2,477
464.3,485
464.4,493
464.5,501
464.6,509
464.7,517
464.8,525
464.9,533
465.0,541
465.1,550
465.2,558
465.3,566
465.4,574
465.5,583
465.6,591
465.7,600
465.8,609
465.9,617
466.0,626
466.1,635
466.2,644
466.3,653
466.4,662
466.5,671
466.6,680
466.7,689
466.8,699
466.9,709
467.0,718
467.1,727
467.2,737
467.3,747
467.4,757
467.5,767
467.6,778
467.7,787
467.8,798
467.9,808
468.0,819
468.1,830
468.2,840
468.3,851
468.4,863
468.5,874
468.6,886
468.7,898
468.8,909
468.9,921
469.0,934
469.1,946
469.2,959
469.3,972
469.4,984
469.5,997
469.6,1010
469.7,1023
469.8,1037
469.9,1050
470.0,1063
470.1,1077
470.2,1091
470.3,1106
470.4,1120
470.5,1134
470.6,1148
470.7,1163
470.8,1178
470.9,1193
471.0,1208
471.1,1224
471.2,1239
471.3,1255
471.4,1271
471.5,1288
471.6,1304
471.7,1320
471.8,1337
471.9,1354
472.0,1371
472.1,1389
472.2,1405
472.3,1422
472.4,1440
472.5,1458
472.6,1476
472.7,1493
472.8,1511
472.9,1529
473.0,1547
473.1,1566
473.2,1585
473.3,1603
473.4,1622
473.5,1641
473.6,1660
473.7,1680
473.8,1699
473.9,1718
474.0,1738
474.1,1758
474.2,1779
474.3,1799
474.4,1819
474.5,1838
474.6,1859
474.7,1880
474.8,1901
474.9,1922
475.0,1942
475.1,1962
475.2,1984
475.3,2006
475.4,2028
475.5,2049
475.6,2070
475.7,2092
475.8,2115
475.9,2138
476.0,2162
476.1,2184
476.2,2206
476.3,2229
476.4,2253
476.5,2277
476.6,2300
476.7,2323
476.8,2347
476.9,2372
477.0,2397
477.1,2422
477.2,2446
477.3,2470
477.4,2495
477.5,2521
477.6,2547
477.7,2574
477.8,2598
477.9,2623
478.0,2651
478.1,2678
478.2,2706
478.3,2731
478.4,2758
478.5,2786
478.6,2814
478.7,2842
478.8,2871
478.9,2897
479.0,2923
479.1,2952
479.2,2981
479.3,3010
479.4,3036
479.5,3064
479.6,3094
479.7,3124
479.8,3154
479.9,3184
480.0,3212
480.1,3240
480.2,3271
480.3,3301
480.4,3332
480.5,3363
480.6,3392
480.7,3421
480.8,3452
480.9,3484
481.0,3515
481.1,3544
481.2,3574
481.3,3606
481.4,3637
481.5,3669
481.6,3701
481.7,3731
481.8,3760
481.9,3792
482.0,3824
482.1,3856
482.2,3889
482.3,3919
482.4,3948
482.5,3981
482.6,4014
482.7,4047
482.8,4077
482.9,4107
483.0,4140
483.1,4173
483.2,4206
483.3,4237
483.4,4267
483.5,4298
483.6,4331
483.7,4365
483.8,4398
483.9,4429
484.0,4459
484.1,4493
484.2,4527
484.3,4561
484.4,4594
484.5,4626
484.6,4659
484.7,4694
484.8,4728
484.9,4764
485.0,4797
485.1,4830
485.2,4863
485.3,4899
485.4,4935
485.5,4971
485.6,5004
485.7,5037
485.8,5073
485.9,5109
486.0,5146
486.1,5181
486.2,5215
486.3,5250
486.4,5287
486.5,5324
486.6,5361
486.7,5396
486.8,5430
486.9,5468
487.0,5507
487.1,5545
487.2,5583
487.3,5619
487.4,5655
487.5,5694
487.6,5733
487.7,5772
487.8,5810
487.9,5847
488.0,5883
488.1,5923
488.2,5962
488.3,6001
488.4,6038
488.5,6075
488.6,6115
488.7,6155
488.8,6194
488.9,6233
489.0,6272
489.1,6310
489.2,6350
489.3,6391
489.4,6430
489.5,6468
489.6,6506
489.7,6547
489.8,6588
489.9,6627
490.0,6667
490.1,6707
490.2,6745
490.3,6786
490.4,6827
490.5,6866
490.6,6905
490.7,6946
490.8,6983
490.9,7024
491.0,7065
491.1,7104
491.2,7143
491.3,7181
491.4,7222
491.5,7263
491.6,7303
491.7,7343
491.8,7384
491.9,7422
492.0,7463
492.1,7504
492.2,7544
492.3,7583
492.4,7620
492.5,7661
492.6,7703
492.7,7743
492.8,7783
492.9,7824
493.0,7862
493.1,7903
493.2,7945
493.3,7987
493.4,8028
493.5,8070
493.6,8109
493.7,8151
493.8,8192
493.9,8234
494.0,8276
494.1,8315
494.2,8357
494.3,8398
494.4,8440
494.5,8482
494.6,8524
494.7,8562
494.8,8603
494.9,8644
495.0,8684
495.1,8725
495.2,8763
495.3,8804
495.4,8844
495.5,8885
495.6,8926
495.7,8967
495.8,9005
495.9,9045
496.0,9086
496.1,9126
496.2,9167
496.3,9208
496.4,9245
496.5,9284
496.6,9324
496.7,9363
496.8,9402
496.9,9439
497.0,9477
497.1,9515
497.2,9553
497.3,9591
497.4,9629
497.5,9664
497.6,9700
497.7,9737
497.8,9773
497.9,9810
498.0,9843
498.1,9879
498.2,9914
498.3,9949
498.4,9985
498.5,10020
498.6,10052
498.7,10086
498.8,10120
498.9,10154
499.0,10189
499.1,10223
499.2,10255
499.3,10288
499.4,10322
499.5,10357
499.6,10392
499.7,10424
499.8,10458
499.9,10493
500.0,10529
500.1,10565
500.2,10600
500.3,10634
500.4,10668
500.5,10704
500.6,10740
500.7,10776
500.8,10813
500.9,10846
501.0,10881
501.1,10917
501.2,10954
501.3,10990
501.4,11024
501.5,11060
501.6,11097
501.7,11134
501.8,11172
501.9,11209
502.0,11245
502.1,11282
502.2,11320
502.3,11358
502.4,11397
502.5,11433
502.6,11472
502.7,11511
502.8,11550
502.9,11589
503.0,11628
503.1,11664
503.2,11702
503.3,11741
503.4,11779
503.5,11817
503.6,11854
503.7,11890
503.8,11926
503.9,11963
504.0,12000
504.1,12037
504.2,12072
504.3,12107
504.4,12144
504.5,12180
504.6,12216
504.7,12252
504.8,12286
504.9,12320
505.0,12355
505.1,12390
505.2,12424
505.3,12457
505.4,12491
505.5,12525
505.6,12559
505.7,12593
505.8,12626
505.9,12659
506.0,12691
506.1,12724
506.2,12756
506.3,12788
506.4,12819
506.5,12850
506.6,12880
506.7,12911
506.8,12941
506.9,12971
507.0,13000
507.1,13030
507.2,13059
507.3,13088
507.4,13117
507.5,13146
507.6,13174
507.7,13203
507.8,13232
507.9,13260
508.0,13289
508.1,13318
508.2,13347
508.3,13376
508.4,13406
508.5,13436
508.6,13465
508.7,13496
508.8,13528
508.9,13557
509.0,13585
509.1,13615
509.2,13644
509.3,13675
509.4,13707
509.5,13736
509.6,13763
509.7,13792
509.8,13822
509.9,13853
510.0,13882
510.1,13911
510.2,13938
510.3,13969
510.4,14000
510.5,14029
510.6,14058
510.7,14088
510.8,14116
510.9,14146
511.0,14178
511.1,14207
511.2,14237
511.3,14267
511.4,14297
511.5,14326
511.6,14355
511.7,14384
511.8,14413
511.9,14441
512.0,14469
512.1,14498
512.2,14526
512.3,14553
512.4,14580
512.5,14607
512.6,14635
512.7,14663
512.8,14687
512.9,14713
513.0,14739
513.1,14767
513.2,14794
513.3,14819
513.4,14842
513.5,14867
513.6,14891
513.7,14918
513.8,14945
513.9,14969
514.0,14991
514.1,15014
514.2,15038
514.3,15063
514.4,15089
514.5,15112
514.6,15133
514.7,15156
514.8,15180
514.9,15205
515.0,15227
515.1,15248
515.2,15269
515.3,15289
515.4,15311
515.5,15334
515.6,15353
515.7,15373
515.8,15392
515.9,15412
516.0,15432
516.1,15451
516.2,15469
516.3,15487
516.4,15506
516.5,15526
516.6,15546
516.7,15565
516.8,15583
516.9,15602
517.0,15620
517.1,15640
517.2,15660
517.3,15679
517.4,15697
517.5,15714
517.6,15734
517.7,15754
517.8,15771
517.9,15786
518.0,15802
518.1,15821
518.2,15839
518.3,15855
518.4,15869
518.5,15883
518.6,15897
518.7,15914
518.8,15930
518.9,15944
519.0,15958
519.1,15971
519.2,15984
519.3,16000
519.4,16016
519.5,16030
519.6,16043
519.7,16056
519.8,16071
519.9,16087
520.0,16099
520.1,16111
520.2,16124
520.3,16135
520.4,16148
520.5,16163
520.6,16175
520.7,16187
520.8,16198
520.9,16213
521.0,16226
521.1,16236
521.2,16247
521.3,16258
521.4,16269
521.5,16281
521.6,16294
521.7,16303
521.8,16312
521.9,16321
522.0,16330
522.1,16341
522.2,16353
522.3,16361
522.4,16370
522.5,16378
522.6,16389
522.7,16401
522.8,16409
522.9,16417
523.0,16426
523.1,16437
523.2,16448
523.3,16457
523.4,16465
523.5,16473
523.6,16481
523.7,16491
523.8,16501
523.9,16509
524.0,16516
524.1,16522
524.2,16528
524.3,16536
524.4,16544
524.5,16549
524.6,16554
524.7,16559
524.8,16565
524.9,16572
525.0,16576
525.1,16580
525.2,16584
525.3,16588
525.4,16594
525.5,16601
525.6,16605
525.7,16609
525.8,16612
525.9,16618
526.0,16623
526.1,16626
526.2,16629
526.3,16631
526.4,16634
526.5,16639
526.6,16643
526.7,16646
526.8,16648
526.9,16650
527.0,16653
527.1,16657
527.2,16662
527.3,16664
527.4,16666
527.5,16668
527.6,16673
527.7,16677
527.8,16679
527.9,16680
528.0,16682
528.1,16686
528.2,16688
528.3,16689
528.4,16690
528.5,16690
528.6,16690
528.7,16692
528.8,16694
528.9,16694
529.0,16693
529.1,16693
529.2,16692
529.3,16694
529.4,16696
529.5,16696
529.6,16696
529.7,16696
529.8,16696
529.9,16698
530.0,16700
530.1,16699
530.2,16699
530.3,16698
530.4,16699
530.5,16699
530.6,16697
530.7,16695
530.8,16692
530.9,16692
531.0,16690
531.1,16687
531.2,16684
531.3,16680
531.4,16677
531.5,16675
531.6,16673
531.7,16670
531.8,16667
531.9,16664
532.0,16661
532.1,16660
532.2,16660
532.3,16657
532.4,16655
532.5,16653
532.6,16652
532.7,16652
532.8,16650
532.9,16647
533.0,16644
533.1,16645
533.2,16644
533.3,16641
533.4,16638
533.5,16635
533.6,16632
533.7,16632
533.8,16631
533.9,16628
534.0,16625
534.1,16622
534.2,16618
534.3,16617
534.4,16616
534.5,16612
534.6,16608
534.7,16604
534.8,16599
534.9,16596
535.0,16594
535.1,16589
535.2,16583
535.3,16577
535.4,16573
535.5,16569
535.6,16563
535.7,16555
535.8,16548
535.9,16543
536.0,16537
536.1,16529
536.2,16521
536.3,16513
536.4,16505
536.5,16499
536.6,16492
536.7,16482
536.8,16472
536.9,16462
537.0,16451
537.1,16441
537.2,16432
537.3,16419
537.4,16406
537.5,16393
537.6,16382
537.7,16370
537.8,16355
537.9,16340
538.0,16326
538.1,16315
538.2,16302
538.3,16287
538.4,16272
538.5,16257
538.6,16242
538.7,16228
538.8,16216
538.9,16205
539.0,16191
539.1,16177
539.2,16163
539.3,16151
539.4,16140
539.5,16127
539.6,16113
539.7,16099
539.8,16084
539.9,16072
540.0,16062
540.1,16048
540.2,16034
540.3,16020
540.4,16010
540.5,15999
540.6,15986
540.7,15974
540.8,15962
540.9,15953
541.0,15943
541.1,15932
541.2,15921
541.3,15911
541.4,15900
541.5,15892
541.6,15884
541.7,15874
541.8,15863
541.9,15853
542.0,15844
542.1,15837
542.2,15831
542.3,15821
542.4,15811
542.5,15802
542.6,15796
542.7,15790
542.8,15781
542.9,15772
543.0,15762
543.1,15753
543.2,15748
543.3,15743
543.4,15734
543.5,15725
543.6,15717
543.7,15708
543.8,15702
543.9,15698
544.0,15690
544.1,15681
544.2,15673
544.3,15668
544.4,15662
544.5,15654
544.6,15646
544.7,15637
544.8,15628
544.9,15623
545.0,15618
545.1,15609
545.2,15601
545.3,15593
545.4,15587
545.5,15582
545.6,15573
545.7,15563
545.8,15555
545.9,15549
546.0,15543
546.1,15532
546.2,15522
546.3,15511
546.4,15500
546.5,15489
546.6,15481
546.7,15473
546.8,15461
546.9,15449
547.0,15436
547.1,15427
547.2,15417
547.3,15403
547.4,15389
547.5,15374
547.6,15359
547.7,15343
547.8,15331
547.9,15319
548.0,15303
548.1,15286
548.2,15270
548.3,15253
548.4,15238
548.5,15225
548.6,15208
548.7,15190
548.8,15172
548.9,15157
549.0,15142
549.1,15123
549.2,15105
549.3,15086
549.4,15066
549.5,15050
549.6,15034
549.7,15014
549.8,14994
549.9,14974
550.0,14954
550.1,14938
550.2,14922
550.3,14902
550.4,14882
550.5,14862
550.6,14842
550.7,14826
550.8,14810
550.9,14791
551.0,14771
551.1,14752
551.2,14733
551.3,14719
551.4,14704
551.5,14686
551.6,14668
551.7,14650
551.8,14633
551.9,14620
552.0,14606
552.1,14589
552.2,14573
552.3,14556
552.4,14541
552.5,14529
552.6,14518
552.7,14503
552.8,14488
552.9,14474
553.0,14460
553.1,14450
553.2,14441
553.3,14428
553.4,14414
553.5,14401
553.6,14388
553.7,14379
553.8,14370
553.9,14357
554.0,14344
554.1,14331
554.2,14319
554.3,14310
554.4,14302
554.5,14289
554.6,14276
554.7,14263
554.8,14250
554.9,14240
555.0,14231
555.1,14217
555.2,14202
555.3,14188
555.4,14179
555.5,14168
555.6,14153
555.7,14137
555.8,14121
555.9,14105
556.0,14088
556.1,14075
556.2,14063
556.3,14046
556.4,14029
556.5,14011
556.6,13999
556.7,13985
556.8,13967
556.9,13950
557.0,13933
557.1,13916
557.2,13898
557.3,13885
557.4,13872
557.5,13855
557.6,13837
557.7,13819
557.8,13801
557.9,13787
558.0,13774
558.1,13756
558.2,13738
558.3,13720
558.4,13707
558.5,13692
558.6,13674
558.7,13657
558.8,13639
558.9,13622
559.0,13604
559.1,13590
559.2,13578
559.3,13562
559.4,13545
559.5,13529
559.6,13518
559.7,13506
559.8,13490
559.9,13474
560.0,13459
560.1,13443
560.2,13428
560.3,13416
560.4,13406
560.5,13391
560.6,13376
560.7,13362
560.8,13347
560.9,13336
561.0,13327
561.1,13313
561.2,13298
561.3,13284
561.4,13274
561.5,13264
561.6,13251
561.7,13236
561.8,13222
561.9,13207
562.0,13196
562.1,13186
562.2,13171
562.3,13156
562.4,13141
562.5,13126
562.6,13115
562.7,13103
562.8,13088
562.9,13073
563.0,13058
563.1,13042
563.2,13031
563.3,13020
563.4,13004
563.5,12989
563.6,12973
563.7,12957
563.8,12945
563.9,12932
564.0,12916
564.1,12898
564.2,12881
564.3,12863
564.4,12849
564.5,12834
564.6,12816
564.7,12798
564.8,12780
564.9,12762
565.0,12748
565.1,12734
565.2,12716
565.3,12698
565.4,12681
565.5,12663
565.6,12649
565.7,12635
565.8,12618
565.9,12600
566.0,12582
566.1,12564
566.2,12550
566.3,12535
566.4,12516
566.5,12497
566.6,12478
566.7,12459
566.8,12443
566.9,12427
567.0,12407
567.1,12388
567.2,12369
567.3,12350
567.4,12335
567.5,12320
567.6,12301
567.7,12285
567.8,12267
567.9,12253
568.0,12237
568.1,12219
568.2,12200
568.3,12182
568.4,12163
568.5,12144
568.6,12128
568.7,12113
568.8,12095
568.9,12076
569.0,12058
569.1,12043
569.2,12028
569.3,12010
569.4,11993
569.5,11975
569.6,11958
569.7,11941
569.8,11927
569.9,11913
570.0,11897
570.1,11880
570.2,11863
570.3,11846
570.4,11832
570.5,11818
570.6,11800
570.7,11782
570.8,11764
570.9,11749
571.0,11733
571.1,11714
571.2,11695
571.3,11677
571.4,11658
571.5,11639
571.6,11622
571.7,11606
571.8,11587
571.9,11568
572.0,11549
572.1,11532
572.2,11515
572.3,11494
572.4,11474
572.5,11453
572.6,11432
572.7,11410
572.8,11391
572.9,11372
573.0,11350
573.1,11328
573.2,11306
573.3,11284
573.4,11265
573.5,11246
573.6,11224
573.7,11202
573.8,11180
573.9,11162
574.0,11144
574.1,11122
574.2,11100
574.3,11078
574.4,11056
574.5,11036
574.6,11016
574.7,10994
574.8,10971
574.9,10948
575.0,10925
575.1,10905
575.2,10884
575.3,10861
575.4,10838
575.5,10815
575.6,10792
575.7,10772
575.8,10752
575.9,10729
576.0,10707
576.1,10685
576.2,10663
576.3,10644
576.4,10625
576.5,10603
576.6,10582
576.7,10561
576.8,10540
576.9,10522
577.0,10503
577.1,10482
577.2,10460
577.3,10440
577.4,10420
577.5,10400
577.6,10382
577.7,10364
577.8,10345
577.9,10326
578.0,10308
578.1,10288
578.2,10269
578.3,10252
578.4,10236
578.5,10217
578.6,10199
578.7,10181
578.8,10164
578.9,10148
579.0,10133
579.1,10116
579.2,10100
579.3,10082
579.4,10066
579.5,10050
579.6,10037
579.7,10023
579.8,10007
579.9,9992
580.0,9976
580.1,9961
580.2,9946
580.3,9933
580.4,9921
580.5,9907
580.6,9892
580.7,9877
580.8,9862
580.9,9851
581.0,9839
581.1,9825
581.2,9809
581.3,9795
581.4,9780
581.5,9764
581.6,9752
581.7,9740
581.8,9725
581.9,9709
582.0,9692
582.1,9676
582.2,9660
582.3,9647
582.4,9632
582.5,9614
582.6,9597
582.7,9580
582.8,9562
582.9,9544
583.0,9528
583.1,9513
583.2,9495
583.3,9476
583.4,9457
583.5,9439
583.6,9424
583.7,9407
583.8,9387
583.9,9367
584.0,9348
584.1,9329
584.2,9308
584.3,9287
584.4,9270
584.5,9253
584.6,9233
584.7,9212
584.8,9193
584.9,9174
585.0,9158
585.1,9141
585.2,9121
585.3,9102
585.4,9084
585.5,9065
585.6,9046
585.7,9032
585.8,9017
585.9,8999
586.0,8981
586.1,8964
586.2,8948
586.3,8932
586.4,8918
586.5,8905
586.6,8889
586.7,8875
586.8,8860
586.9,8844
587.0,8830
587.1,8818
587.2,8808
587.3,8793
587.4,8780
587.5,8766
587.6,8753
587.7,8739
587.8,8728
587.9,8719
588.0,8706
588.1,8692
588.2,8678
588.3,8664
588.4,8653
588.5,8643
588.6,8628
588.7,8613
588.8,8599
588.9,8585
589.0,8571
589.1,8559
589.2,8547
589.3,8533
589.4,8519
589.5,8503
589.6,8488
589.7,8474
589.8,8461
589.9,8448
590.0,8432
590.1,8416
590.2,8400
590.3,8383
590.4,8369
590.5,8354
590.6,8338
590.7,8321
590.8,8304
590.9,8286
591.0,8269
591.1,8254
591.2,8239
591.3,8220
591.4,8202
591.5,8184
591.6,8167
591.7,8148
591.8,8132
591.9,8117
592.0,8099
592.1,8081
592.2,8061
592.3,8043
592.4,8028
592.5,8013
592.6,7994
592.7,7975
592.8,7957
592.9,7939
593.0,7920
593.1,7905
593.2,7890
593.3,7873
593.4,7856
593.5,7838
593.6,7821
593.7,7805
593.8,7791
593.9,7776
594.0,7759
594.1,7743
594.2,7726
594.3,7710
594.4,7692
594.5,7678
594.6,7664
594.7,7648
594.8,7632
594.9,7615
595.0,7600
595.1,7588
595.2,7574
595.3,7558
595.4,7544
595.5,7529
595.6,7516
595.7,7501
595.8,7487
595.9,7476
596.0,7465
596.1,7452
596.2,7438
596.3,7425
596.4,7413
596.5,7402
596.6,7392
596.7,7378
596.8,7365
596.9,7353
597.0,7339
597.1,7326
597.2,7316
597.3,7305
597.4,7292
597.5,7278
597.6,7266
597.7,7253
597.8,7241
597.9,7229
598.0,7219
598.1,7206
598.2,7194
598.3,7181
598.4,7168
598.5,7155
598.6,7144
598.7,7134
598.8,7121
598.9,7107
599.0,7094
599.1,7081
599.2,7068
599.3,7057
599.4,7047
599.5,7034
599.6,7022
599.7,7008
599.8,6996
599.9,6985
600.0,6975
600.1,6962
600.2,6948
600.3,6935
600.4,6922
600.5,6909
600.6,6897
600.7,6886
600.8,6873
600.9,6860
601.0,6845
601.1,6832
601.2,6819
601.3,6808
601.4,6798
601.5,6784
601.6,6771
601.7,6759
601.8,6746
601.9,6736
602.0,6725
602.1,6712
602.2,6700
602.3,6687
602.4,6673
602.5,6660
602.6,6650
602.7,6639
602.8,6626
602.9,6612
603.0,6599
603.1,6586
603.2,6572
603.3,6561
603.4,6550
603.5,6537
603.6,6524
603.7,6510
603.8,6497
603.9,6487
604.0,6476
604.1,6462
604.2,6449
604.3,6436
604.4,6423
604.5,6410
604.6,6398
604.7,6386
604.8,6373
604.9,6359
605.0,6344
605.1,6330
605.2,6316
605.3,6304
605.4,6292
605.5,6276
605.6,6262
605.7,6247
605.8,6233
605.9,6217
606.0,6203
606.1,6191
606.2,6176
606.3,6160
606.4,6144
606.5,6129
606.6,6116
606.7,6103
606.8,6088
606.9,6072
607.0,6058
607.1,6043
607.2,6027
607.3,6013
607.4,6000
607.5,5987
607.6,5972
607.7,5956
607.8,5940
607.9,5925
608.0,5911
608.1,5897
608.2,5881
608.3,5865
608.4,5850
608.5,5835
608.6,5819
608.7,5805
608.8,5793
608.9,5778
609.0,5762
609.1,5748
609.2,5734
609.3,5720
609.4,5707
609.5,5695
609.6,5682
609.7,5668
609.8,5655
609.9,5641
610.0,5628
610.1,5616
610.2,5606
610.3,5593
610.4,5579
610.5,5566
610.6,5553
610.7,5542
610.8,5531
610.9,5518
611.0,5505
611.1,5493
611.2,5480
611.3,5467
611.4,5457
611.5,5447
611.6,5435
611.7,5422
611.8,5410
611.9,5398
612.0,5386
612.1,5375
612.2,5365
612.3,5353
612.4,5342
612.5,5332
612.6,5320
612.7,5310
612.8,5302
612.9,5294
613.0,5284
613.1,5274
613.2,5265
613.3,5255
613.4,5247
613.5,5238
613.6,5228
613.7,5218
613.8,5207
613.9,5196
614.0,5186
614.1,5177
614.2,5169
614.3,5158
614.4,5147
614.5,5137
614.6,5127
614.7,5117
614.8,5109
614.9,5101
615.0,5091
615.1,5082
615.2,5071
615.3,5062
615.4,5055
615.5,5047
615.6,5037
615.7,5027
615.8,5017
615.9,5007
616.0,4997
616.1,4988
616.2,4978
616.3,4967
616.4,4956
616.5,4945
616.6,4933
616.7,4922
616.8,4913
616.9,4903
617.0,4891
617.1,4880
617.2,4869
617.3,4858
617.4,4845
617.5,4835
617.6,4826
617.7,4814
617.8,4802
617.9,4789
618.0,4777
618.1,4767
618.2,4756
618.3,4744
618.4,4732
618.5,4720
618.6,4709
618.7,4698
618.8,4686
618.9,4676
619.0,4667
619.1,4656
619.2,4644
619.3,4633
619.4,4622
619.5,4613
619.6,4603
619.7,4591
619.8,4580
619.9,4569
620.0,4558
620.1,4547
620.2,4537
620.3,4528
620.4,4517
620.5,4507
620.6,4495
620.7,4485
620.8,4475
620.9,4466
621.0,4458
621.1,4448
621.2,4439
621.3,4430
621.4,4420
621.5,4411
621.6,4404
621.7,4397
621.8,4388
621.9,4379
622.0,4370
622.1,4361
622.2,4354
622.3,4347
622.4,4338
622.5,4329
622.6,4321
622.7,4313
622.8,4304
622.9,4297
623.0,4291
623.1,4283
623.2,4274
623.3,4267
623.4,4259
623.5,4251
623.6,4244
623.7,4237
623.8,4229
623.9,4221
624.0,4213
624.1,4204
624.2,4197
624.3,4190
624.4,4185
624.5,4177
624.6,4169
624.7,4162
624.8,4155
624.9,4149
625.0,4143
625.1,4136
625.2,4129
625.3,4122
625.4,4114
625.5,4107
625.6,4102
625.7,4097
625.8,4090
625.9,4082
626.0,4075
626.1,4068
626.2,4061
626.3,4055
626.4,4049
626.5,4042
626.6,4034
626.7,4027
626.8,4018
626.9,4012
627.0,4006
627.1,3998
627.2,3990
627.3,3982
627.4,3974
627.5,3965
627.6,3958
627.7,3951
627.8,3942
627.9,3932
628.0,3923
628.1,3912
628.2,3902
628.3,3894
628.4,3885
628.5,3874
628.6,3863
628.7,3852
628.8,3841
628.9,3830
629.0,3820
629.1,3810
629.2,3798
629.3,3787
629.4,3774
629.5,3762
629.6,3752
629.7,3741
629.8,3728
629.9,3716
630.0,3703
630.1,3692
630.2,3680
630.3,3667
630.4,3657
630.5,3647
630.6,3636
630.7,3624
630.8,3612
630.9,3601
631.0,3592
631.1,3582
631.2,3571
631.3,3561
631.4,3551
631.5,3541
631.6,3532
631.7,3524
631.8,3516
631.9,3508
632.0,3499
632.1,3491
632.2,3483
632.3,3475
632.4,3469
632.5,3464
632.6,3456
632.7,3450
632.8,3444
632.9,3437
633.0,3432
633.1,3427
633.2,3424
633.3,3418
633.4,3413
633.5,3407
633.6,3402
633.7,3398
633.8,3395
633.9,3389
634.0,3384
634.1,3379
634.2,3374
634.3,3369
634.4,3365
634.5,3362
634.6,3357
634.7,3352
634.8,3346
634.9,3341
635.0,3336
635.1,3332
635.2,3328
635.3,3323
635.4,3317
635.5,3312
635.6,3305
635.7,3299
635.8,3294
635.9,3290
636.0,3283
636.1,3276
636.2,3270
636.3,3263
636.4,3258
636.5,3252
636.6,3245
636.7,3238
636.8,3230
636.9,3223
637.0,3215
637.1,3210
637.2,3204
637.3,3196
637.4,3188
637.5,3181
637.6,3174
637.7,3167
637.8,3161
637.9,3155
638.0,3147
638.1,3140
638.2,3133
638.3,3125
638.4,3119
638.5,3113
638.6,3106
638.7,3098
638.8,3091
638.9,3083
639.0,3076
639.1,3071
639.2,3065
639.3,3058
639.4,3051
639.5,3044
639.6,3037
639.7,3030
639.8,3024
639.9,3018
640.0,3011
640.1,3004
640.2,2997
640.3,2990
640.4,2985
640.5,2979
640.6,2972
640.7,2965
640.8,2959
640.9,2951
641.0,2945
641.1,2939
641.2,2934
641.3,2927
641.4,2919
641.5,2912
641.6,2905
641.7,2898
641.8,2891
641.9,2885
642.0,2879
642.1,2872
642.2,2865
642.3,2858
642.4,2850
642.5,2844
642.6,2838
642.7,2831
642.8,2823
642.9,2816
643.0,2808
643.1,2801
643.2,2794
643.3,2788
643.4,2781
643.5,2774
643.6,2766
643.7,2758
643.8,2751
643.9,2745
644.0,2738
644.1,2730
644.2,2723
644.3,2715
644.4,2708
644.5,2700
644.6,2694
644.7,2688
644.8,2681
644.9,2674
645.0,2667
645.1,2660
645.2,2654
645.3,2649
645.4,2642
645.5,2635
645.6,2628
645.7,2622
645.8,2615
645.9,2610
646.0,2605
646.1,2599
646.2,2593
646.3,2587
646.4,2581
646.5,2575
646.6,2571
646.7,2567
646.8,2561
646.9,2556
647.0,2551
647.1,2546
647.2,2541
647.3,2537
647.4,2534
647.5,2530
647.6,2525
647.7,2520
647.8,2516
647.9,2512
648.0,2508
648.1,2503
648.2,2499
648.3,2494
648.4,2489
648.5,2484
648.6,2481
648.7,2477
648.8,2473
648.9,2468
649.0,2463
649.1,2458
649.2,2454
649.3,2450
649.4,2446
649.5,2442
649.6,2437
649.7,2432
649.8,2427
649.9,2424
650.0,2420
650.1,2415
650.2,2410
650.3,2405
650.4,2400
650.5,2396
650.6,2392
650.7,2388
650.8,2382
650.9,2377
651.0,2372
651.1,2367
651.2,2362
651.3,2358
651.4,2353
651.5,2348
651.6,2342
651.7,2337
651.8,2332
651.9,2328
652.0,2323
652.1,2317
652.2,2312
652.3,2307
652.4,2302
652.5,2296
652.6,2293
652.7,2289
652.8,2284
652.9,2279
653.0,2274
653.1,2269
653.2,2264
653.3,2259
653.4,2254
653.5,2251
653.6,2246
653.7,2241
653.8,2235
653.9,2230
654.0,2225
654.1,2221
654.2,2216
654.3,2210
654.4,2205
654.5,2200
654.6,2195
654.7,2190
654.8,2184
654.9,2179
655.0,2174
655.1,2168
655.2,2162
655.3,2157
655.4,2152
655.5,2147
655.6,2141
655.7,2136
655.8,2130
655.9,2124
656.0,2118
656.1,2112
656.2,2107
656.3,2100
656.4,2094
656.5,2087
656.6,2080
656.7,2074
656.8,2068
656.9,2061
657.0,2055
657.1,2048
657.2,2042
657.3,2035
657.4,2030
657.5,2024
657.6,2018
657.7,2012
657.8,2005
657.9,1999
658.0,1993
658.1,1987
658.2,1982
658.3,1976
658.4,1971
658.5,1965
658.6,1959
658.7,1953
658.8,1948
658.9,1944
659.0,1938
659.1,1932
659.2,1927
659.3,1922
659.4,1917
659.5,1912
659.6,1907
659.7,1902
659.8,1897
659.9,1892
660.0,1887
660.1,1883
660.2,1879
660.3,1874
660.4,1869
660.5,1863
660.6,1858
660.7,1853
660.8,1849
660.9,1844
661.0,1839
661.1,1835
661.2,1830
661.3,1825
661.4,1820
661.5,1816
661.6,1811
661.7,1806
661.8,1800
661.9,1795
662.0,1790
662.1,1785
662.2,1780
662.3,1774
662.4,1768
662.5,1763
662.6,1758
662.7,1752
662.8,1747
662.9,1743
663.0,1737
663.1,1732
663.2,1727
663.3,1722
663.4,1717
663.5,1712
663.6,1707
663.7,1702
663.8,1698
663.9,1693
664.0,1687
664.1,1683
664.2,1679
664.3,1674
664.4,1669
664.5,1663
664.6,1658
664.7,1653
664.8,1648
664.9,1643
665.0,1639
665.1,1634
665.2,1629
665.3,1625
665.4,1620
665.5,1617
665.6,1613
665.7,1609
665.8,1605
665.9,1601
666.0,1597
666.1,1594
666.2,1590
666.3,1586
666.4,1583
666.5,1579
666.6,1575
666.7,1571
666.8,1568
666.9,1564
667.0,1561
667.1,1558
667.2,1554
667.3,1551
667.4,1547
667.5,1544
667.6,1540
667.7,1538
667.8,1535
667.9,1532
668.0,1528
668.1,1525
668.2,1523
668.3,1520
668.4,1517
668.5,1514
668.6,1511
668.7,1508
668.8,1504
668.9,1502
669.0,1499
669.1,1496
669.2,1493
669.3,1489
669.4,1486
669.5,1483
669.6,1481
669.7,1478
669.8,1474
669.9,1471
670.0,1468
670.1,1464
670.2,1460
670.3,1457
670.4,1453
670.5,1449
670.6,1445
670.7,1441
670.8,1436
670.9,1432
671.0,1428
671.1,1424
671.2,1420
671.3,1416
671.4,1412
671.5,1408
671.6,1404
671.7,1401
671.8,1397
671.9,1394
672.0,1390
672.1,1387
672.2,1383
672.3,1380
672.4,1376
672.5,1373
672.6,1369
672.7,1365
672.8,1361
672.9,1357
673.0,1354
673.1,1350
673.2,1346
673.3,1342
673.4,1338
673.5,1335
673.6,1331
673.7,1328
673.8,1325
673.9,1322
674.0,1319
674.1,1316
674.2,1313
674.3,1310
674.4,1308
674.5,1305
674.6,1303
674.7,1300
674.8,1297
674.9,1295
675.0,1293
675.1,1291
675.2,1288
675.3,1286
675.4,1284
675.5,1281
675.6,1279
675.7,1277
675.8,1275
675.9,1273
676.0,1270
676.1,1268
676.2,1265
676.3,1263
676.4,1261
676.5,1258
676.6,1255
676.7,1252
676.8,1249
676.9,1245
677.0,1243
677.1,1240
677.2,1237
677.3,1233
677.4,1230
677.5,1227
677.6,1224
677.7,1221
677.8,1217
677.9,1214
678.0,1211
678.1,1208
678.2,1205
678.3,1202
678.4,1199
678.5,1197
678.6,1194
678.7,1190
678.8,1187
678.9,1185
679.0,1182
679.1,1179
679.2,1176
679.3,1174
679.4,1171
679.5,1168
679.6,1166
679.7,1164
679.8,1163
679.9,1161
680.0,1160
680.1,1158
680.2,1157
680.3,1157
680.4,1156
680.5,1156
680.6,1156
680.7,1156
680.8,1156
680.9,1156
681.0,1157
681.1,1157
681.2,1158
681.3,1159
681.4,1159
681.5,1160
681.6,1161
681.7,1162
681.8,1163
681.9,1165
682.0,1166
682.1,1167
682.2,1168
682.3,1169
682.4,1170
682.5,1172
682.6,1173
682.7,1174
682.8,1175
682.9,1175
683.0,1176
683.1,1178
683.2,1179
683.3,1180
683.4,1181
683.5,1181
683.6,1182
683.7,1182
683.8,1183
683.9,1183
684.0,1183
684.1,1183
684.2,1182
684.3,1182
684.4,1181
684.5,1180
684.6,1179
684.7,1178
684.8,1176
684.9,1174
685.0,1172
685.1,1170
685.2,1168
685.3,1166
685.4,1163
685.5,1160
685.6,1158
685.7,1155
685.8,1152
685.9,1150
686.0,1147
686.1,1145
686.2,1142
686.3,1139
686.4,1136
686.5,1134
686.6,1130
686.7,1127
686.8,1124
686.9,1121
687.0,1117
687.1,1114
687.2,1111
687.3,1108
687.4,1105
687.5,1101
687.6,1098
687.7,1095
687.8,1092
687.9,1089
688.0,1086
688.1,1083
688.2,1080
688.3,1077
688.4,1074
688.5,1071
688.6,1068
688.7,1065
688.8,1062
688.9,1059
689.0,1056
689.1,1054
689.2,1051
689.3,1049
689.4,1046
689.5,1044
689.6,1042
689.7,1039
689.8,1037
689.9,1035
690.0,1034
690.1,1032
690.2,1030
690.3,1028
690.4,1027
690.5,1025
690.6,1023
690.7,1021
690.8,1019
690.9,1017
691.0,1015
691.1,1012
691.2,1010
691.3,1008
691.4,1005
691.5,1003
691.6,1000
691.7,998
691.8,996
691.9,994
692.0,992
692.1,990
692.2,988
692.3,986
692.4,984
692.5,982
692.6,980
692.7,978
692.8,976
692.9,973
693.0,971
693.1,969
693.2,966
693.3,964
693.4,962
693.5,960
693.6,957
693.7,954
693.8,952
693.9,950
694.0,947
694.1,945
694.2,942
694.3,939
694.4,936
694.5,934
694.6,931
694.7,929
694.8,926
694.9,923
695.0,920
695.1,917
695.2,915
695.3,912
695.4,910
695.5,907
695.6,904
695.7,902
695.8,899
695.9,897
696.0,895
696.1,893
696.2,890
696.3,888
696.4,885
696.5,883
696.6,881
696.7,878
696.8,876
696.9,873
697.0,870
697.1,867
697.2,865
697.3,862
697.4,860
697.5,857
697.6,855
697.7,852
697.8,850
697.9,848
698.0,846
698.1,844
698.2,842
698.3,840
698.4,838
698.5,835
698.6,833
698.7,831
698.8,829
698.9,827
699.0,825
699.1,823
699.2,820
699.3,818
699.4,816
699.5,814
699.6,812
699.7,809
699.8,807
699.9,805
700.0,802
