Created as New Dataset,Sample 2527 By Analyst Date Thursday, December 19 2024
nm,INT
375.0,1716
375.1,1671
375.2,1615
375.3,1562
375.4,1513
375.5,1472
375.6,1431
375.7,1393
375.8,1359
375.9,1329
376.0,1300
376.1,1275
376.2,1253
376.3,1232
376.4,1213
376.5,1195
376.6,1181
376.7,1168
376.8,1155
376.9,1144
377.0,1135
377.1,1127
377.2,1119
377.3,1112
377.4,1104
377.5,1098
377.6,1092
377.7,1086
377.8,1079
377.9,1072
378.0,1066
378.1,1059
378.2,1052
378.3,1046
378.4,1039
378.5,1033
378.6,1027
378.7,1023
378.8,1018
378.9,1014
379.0,1010
379.1,1007
379.2,1004
379.3,1002
379.4,1000
379.5,998
379.6,996
379.7,993
379.8,991
379.9,988
380.0,985
380.1,983
380.2,980
380.3,978
380.4,974
380.5,971
380.6,968
380.7,965
380.8,963
380.9,960
381.0,957
381.1,955
381.2,953
381.3,950
381.4,949
381.5,947
381.6,945
381.7,943
381.8,941
381.9,940
382.0,938
382.1,936
382.2,935
382.3,935
382.4,934
382.5,934
382.6,934
382.7,935
382.8,936
382.9,938
383.0,941
383.1,944
383.2,947
383.3,952
383.4,957
383.5,963
383.6,969
383.7,974
383.8,981
383.9,987
384.0,993
384.1,999
384.2,1005
384.3,1011
384.4,1016
384.5,1020
384.6,1025
384.7,1028
384.8,1032
384.9,1036
385.0,1039
385.1,1043
385.2,1046
385.3,1050
385.4,1053
385.5,1058
385.6,1062
385.7,1066
385.8,1071
385.9,1075
386.0,1080
386.1,1084
386.2,1088
386.3,1092
386.4,1097
386.5,1101
386.6,1106
386.7,1111
386.8,1115
386.9,1119
387.0,1124
387.1,1129
387.2,1134
387.3,1138
387.4,1143
387.5,1148
387.6,1153
387.7,1158
387.8,1162
387.9,1167
388.0,1173
388.1,1179
388.2,1185
388.3,1192
388.4,1200
388.5,1208
388.6,1216
388.7,1224
388.8,1233
388.9,1241
389.0,1250
389.1,1259
389.2,1268
389.3,1276
389.4,1285
389.5,1294
389.6,1304
389.7,1313
389.8,1324
389.9,1335
390.0,1347
390.1,1359
390.2,1371
390.3,1383
390.4,1396
390.5,1409
390.6,1421
390.7,1433
390.8,1445
390.9,1456
391.0,1467
391.1,1477
391.2,1488
391.3,1499
391.4,1509
391.5,1519
391.6,1529
391.7,1539
391.8,1548
391.9,1556
392.0,1564
392.1,1572
392.2,1579
392.3,1586
392.4,1593
392.5,1599
392.6,1605
392.7,1611
392.8,1618
392.9,1625
393.0,1632
393.1,1638
393.2,1643
393.3,1648
393.4,1652
393.5,1654
393.6,1656
393.7,1657
393.8,1658
393.9,1658
394.0,1658
394.1,1657
394.2,1657
394.3,1657
394.4,1657
394.5,1658
394.6,1658
394.7,1659
394.8,1660
394.9,1660
395.0,1660
395.1,1659
395.2,1659
395.3,1657
395.4,1656
395.5,1655
395.6,1653
395.7,1652
395.8,1651
395.9,1650
396.0,1650
396.1,1650
396.2,1650
396.3,1651
396.4,1652
396.5,1654
396.6,1657
396.7,1660
396.8,1663
396.9,1668
397.0,1674
397.1,1681
397.2,1689
397.3,1698
397.4,1707
397.5,1715
397.6,1725
397.7,1734
397.8,1743
397.9,1751
398.0,1760
398.1,1768
398.2,1776
398.3,1785
398.4,1794
398.5,1804
398.6,1815
398.7,1828
398.8,1842
398.9,1856
399.0,1873
399.1,1890
399.2,1908
399.3,1926
399.4,1946
399.5,1966
399.6,1985
399.7,2008
399.8,2030
399.9,2052
400.0,2074
400.1,2098
400.2,2123
400.3,2146
400.4,2170
400.5,2195
400.6,2220
400.7,2243
400.8,2267
400.9,2289
401.0,2312
401.1,2335
401.2,2359
401.3,2381
401.4,2405
401.5,2429
401.6,2453
401.7,2476
401.8,2500
401.9,2524
402.0,2546
402.1,2567
402.2,2589
402.3,2609
402.4,2628
402.5,2646
402.6,2664
402.7,2682
402.8,2699
402.9,2717
403.0,2735
403.1,2752
403.2,2770
403.3,2788
403.4,2805
403.5,2822
403.6,2840
403.7,2856
403.8,2871
403.9,2886
404.0,2901
404.1,2914
404.2,2927
404.3,2941
404.4,2954
404.5,2966
404.6,2978
404.7,2989
404.8,3000
404.9,3011
405.0,3020
405.1,3030
405.2,3039
405.3,3048
405.4,3057
405.5,3065
405.6,3074
405.7,3084
405.8,3094
405.9,3105
406.0,3117
406.1,3129
406.2,3142
406.3,3154
406.4,3167
406.5,3178
406.6,3189
406.7,3200
406.8,3209
406.9,3218
407.0,3226
407.1,3232
407.2,3238
407.3,3242
407.4,3247
407.5,3250
407.6,3254
407.7,3257
407.8,3261
407.9,3265
408.0,3268
408.1,3271
408.2,3275
408.3,3278
408.4,3282
408.5,3286
408.6,3290
408.7,3293
408.8,3297
408.9,3299
409.0,3302
409.1,3304
409.2,3305
409.3,3307
409.4,3307
409.5,3307
409.6,3306
409.7,3304
409.8,3302
409.9,3298
410.0,3294
410.1,3289
410.2,3284
410.3,3279
410.4,3274
410.5,3269
410.6,3263
410.7,3258
410.8,3252
410.9,3247
411.0,3241
411.1,3236
411.2,3231
411.3,3224
411.4,3217
411.5,3209
411.6,3201
411.7,3193
411.8,3185
411.9,3176
412.0,3168
412.1,3160
412.2,3152
412.3,3145
412.4,3139
412.5,3133
412.6,3128
412.7,3124
412.8,3120
412.9,3116
413.0,3113
413.1,3110
413.2,3108
413.3,3106
413.4,3103
413.5,3102
413.6,3101
413.7,3101
413.8,3102
413.9,3104
414.0,3106
414.1,3110
414.2,3114
414.3,3118
414.4,3123
414.5,3129
414.6,3135
414.7,3143
414.8,3150
414.9,3159
415.0,3169
415.1,3179
415.2,3190
415.3,3201
415.4,3213
415.5,3225
415.6,3237
415.7,3250
415.8,3263
415.9,3274
416.0,3286
416.1,3297
416.2,3308
416.3,3319
416.4,3330
416.5,3341
416.6,3353
416.7,3365
416.8,3378
416.9,3390
417.0,3402
417.1,3416
417.2,3429
417.3,3443
417.4,3456
417.5,3469
417.6,3482
417.7,3495
417.8,3508
417.9,3520
418.0,3533
418.1,3545
418.2,3557
418.3,3568
418.4,3579
418.5,3589
418.6,3599
418.7,3609
418.8,3616
418.9,3624
419.0,3631
419.1,3638
419.2,3644
419.3,3649
419.4,3655
419.5,3662
419.6,3669
419.7,3675
419.8,3682
419.9,3690
420.0,3697
420.1,3705
420.2,3712
420.3,3719
420.4,3726
420.5,3733
420.6,3739
420.7,3745
420.8,3749
420.9,3752
421.0,3756
421.1,3760
421.2,3762
421.3,3765
421.4,3767
421.5,3769
421.6,3770
421.7,3771
421.8,3772
421.9,3773
422.0,3775
422.1,3776
422.2,3777
422.3,3778
422.4,3780
422.5,3783
422.6,3785
422.7,3788
422.8,3792
422.9,3795
423.0,3799
423.1,3803
423.2,3806
423.3,3808
423.4,3810
423.5,3811
423.6,3812
423.7,3812
423.8,3810
423.9,3808
424.0,3806
424.1,3804
424.2,3800
424.3,3796
424.4,3792
424.5,3788
424.6,3783
424.7,3777
424.8,3770
424.9,3762
425.0,3753
425.1,3744
425.2,3733
425.3,3721
425.4,3708
425.5,3696
425.6,3683
425.7,3668
425.8,3653
425.9,3638
426.0,3623
426.1,3608
426.2,3591
426.3,3575
426.4,3558
426.5,3541
426.6,3523
426.7,3505
426.8,3487
426.9,3468
427.0,3450
427.1,3432
427.2,3413
427.3,3396
427.4,3377
427.5,3361
427.6,3344
427.7,3327
427.8,3311
427.9,3294
428.0,3279
428.1,3264
428.2,3249
428.3,3235
428.4,3221
428.5,3209
428.6,3198
428.7,3187
428.8,3177
428.9,3169
429.0,3162
429.1,3155
429.2,3150
429.3,3145
429.4,3142
429.5,3140
429.6,3138
429.7,3137
429.8,3137
429.9,3138
430.0,3141
430.1,3145
430.2,3149
430.3,3156
430.4,3164
430.5,3173
430.6,3183
430.7,3193
430.8,3206
430.9,3220
431.0,3235
431.1,3250
431.2,3265
431.3,3282
431.4,3299
431.5,3317
431.6,3336
431.7,3354
431.8,3374
431.9,3394
432.0,3414
432.1,3435
432.2,3454
432.3,3475
432.4,3495
432.5,3514
432.6,3533
432.7,3552
432.8,3570
432.9,3588
433.0,3605
433.1,3621
433.2,3638
433.3,3653
433.4,3669
433.5,3684
433.6,3699
433.7,3714
433.8,3729
433.9,3744
434.0,3760
434.1,3774
434.2,3789
434.3,3802
434.4,3817
434.5,3831
434.6,3843
434.7,3855
434.8,3865
434.9,3876
435.0,3885
435.1,3893
435.2,3901
435.3,3907
435.4,3913
435.5,3919
435.6,3923
435.7,3927
435.8,3930
435.9,3934
436.0,3938
436.1,3942
436.2,3945
436.3,3949
436.4,3954
436.5,3961
436.6,3969
436.7,3976
436.8,3985
436.9,3994
437.0,4004
437.1,4015
437.2,4026
437.3,4036
437.4,4047
437.5,4058
437.6,4070
437.7,4081
437.8,4092
437.9,4102
438.0,4113
438.1,4124
438.2,4136
438.3,4148
438.4,4158
438.5,4169
438.6,4180
438.7,4193
438.8,4205
438.9,4217
439.0,4227
439.1,4239
439.2,4251
439.3,4264
439.4,4278
439.5,4290
439.6,4303
439.7,4317
439.8,4332
439.9,4348
440.0,4362
440.1,4375
440.2,4389
440.3,4405
440.4,4420
440.5,4435
440.6,4449
440.7,4462
440.8,4476
440.9,4491
441.0,4505
441.1,4517
441.2,4527
441.3,4538
441.4,4549
441.5,4559
441.6,4567
441.7,4573
441.8,4579
441.9,4585
442.0,4592
442.1,4598
442.2,4603
442.3,4608
442.4,4613
442.5,4617
442.6,4623
442.7,4629
442.8,4633
442.9,4636
443.0,4640
443.1,4646
443.2,4652
443.3,4657
443.4,4663
443.5,4669
443.6,4675
443.7,4684
443.8,4693
443.9,4700
444.0,4706
444.1,4712
444.2,4720
444.3,4726
444.4,4730
444.5,4734
444.6,4737
444.7,4740
444.8,4744
444.9,4749
445.0,4751
445.1,4753
445.2,4756
445.3,4761
445.4,4765
445.5,4768
445.6,4769
445.7,4771
445.8,4775
445.9,4778
446.0,4780
446.1,4782
446.2,4785
446.3,4788
446.4,4793
446.5,4798
446.6,4803
446.7,4807
446.8,4810
446.9,4815
447.0,4819
447.1,4820
447.2,4821
447.3,4822
447.4,4821
447.5,4822
447.6,4823
447.7,4820
447.8,4818
447.9,4816
448.0,4815
448.1,4815
448.2,4815
448.3,4813
448.4,4810
448.5,4808
448.6,4807
448.7,4806
448.8,4803
448.9,4801
449.0,4797
449.1,4795
449.2,4795
449.3,4796
449.4,4794
449.5,4793
449.6,4791
449.7,4792
449.8,4792
449.9,4791
450.0,4789
450.1,4787
450.2,4785
450.3,4785
450.4,4785
450.5,4784
450.6,4783
450.7,4783
450.8,4785
450.9,4787
451.0,4788
451.1,4790
451.2,4792
451.3,4797
451.4,4800
451.5,4802
451.6,4804
451.7,4805
451.8,4806
451.9,4810
452.0,4815
452.1,4818
452.2,4820
452.3,4824
452.4,4829
452.5,4835
452.6,4840
452.7,4846
452.8,4854
452.9,4861
453.0,4870
453.1,4879
453.2,4887
453.3,4897
453.4,4906
453.5,4915
453.6,4926
453.7,4936
453.8,4945
453.9,4955
454.0,4964
454.1,4974
454.2,4984
454.3,4991
454.4,4999
454.5,5006
454.6,5013
454.7,5021
454.8,5030
454.9,5036
455.0,5043
455.1,5051
455.2,5060
455.3,5070
455.4,5078
455.5,5087
455.6,5095
455.7,5103
455.8,5112
455.9,5122
456.0,5130
456.1,5136
456.2,5142
456.3,5148
456.4,5154
456.5,5157
456.6,5161
456.7,5164
456.8,5168
456.9,5172
457.0,5176
457.1,5179
457.2,5183
457.3,5187
457.4,5193
457.5,5199
457.6,5203
457.7,5209
457.8,5215
457.9,5221
458.0,5229
458.1,5237
458.2,5244
458.3,5252
458.4,5259
458.5,5267
458.6,5276
458.7,5285
458.8,5294
458.9,5302
459.0,5311
459.1,5322
459.2,5333
459.3,5343
459.4,5354
459.5,5367
459.6,5379
459.7,5393
459.8,5407
459.9,5422
460.0,5439
460.1,5456
460.2,5473
460.3,5491
460.4,5509
460.5,5528
460.6,5548
460.7,5569
460.8,5590
460.9,5610
461.0,5632
461.1,5655
461.2,5679
461.3,5704
461.4,5729
461.5,5753
461.6,5780
461.7,5808
461.8,5836
461.9,5865
462.0,5893
462.1,5920
462.2,5949
462.3,5977
462.4,6006
462.5,6035
462.6,6062
462.7,6091
462.8,6121
462.9,6151
463.0,6182
463.1,6213
463.2,6243
463.3,6277
463.4,6312
463.5,6347
463.6,6383
463.7,6421
463.8,6458
463.9,6499
464.0,6541
464.1,6583
464.2,6625
464.3,6667
464.4,6713
464.5,6761
464.6,6809
464.7,6858
464.8,6906
464.9,6950
465.0,6998
465.1,7045
465.2,7092
465.3,7137
465.4,7180
465.5,7225
465.6,7269
465.7,7313
465.8,7356
465.9,7401
466.0,7444
466.1,7492
466.2,7540
466.3,7589
466.4,7640
466.5,7693
466.6,7743
466.7,7799
466.8,7855
466.9,7912
467.0,7971
467.1,8027
467.2,8089
467.3,8151
467.4,8213
467.5,8276
467.6,8340
467.7,8400
467.8,8465
467.9,8528
468.0,8592
468.1,8656
468.2,8717
468.3,8782
468.4,8845
468.5,8911
468.6,8979
468.7,9048
468.8,9112
468.9,9183
469.0,9254
469.1,9327
469.2,9404
469.3,9483
469.4,9558
469.5,9638
469.6,9718
469.7,9799
469.8,9884
469.9,9964
470.0,10051
470.1,10136
470.2,10223
470.3,10314
470.4,10407
470.5,10494
470.6,10587
470.7,10681
470.8,10776
470.9,10874
471.0,10966
471.1,11065
471.2,11162
471.3,11259
471.4,11357
471.5,11454
471.6,11542
471.7,11635
471.8,11727
471.9,11816
472.0,11908
472.1,12001
472.2,12086
472.3,12171
472.4,12260
472.5,12353
472.6,12448
472.7,12535
472.8,12622
472.9,12713
473.0,12808
473.1,12904
473.2,12999
473.3,13088
473.4,13176
473.5,13265
473.6,13359
473.7,13451
473.8,13536
473.9,13619
474.0,13705
474.1,13793
474.2,13880
474.3,13966
474.4,14046
474.5,14123
474.6,14202
474.7,14286
474.8,14371
474.9,14457
475.0,14540
475.1,14622
475.2,14707
475.3,14800
475.4,14895
475.5,14984
475.6,15073
475.7,15167
475.8,15267
475.9,15366
476.0,15465
476.1,15557
476.2,15647
476.3,15740
476.4,15841
476.5,15943
476.6,16039
476.7,16136
476.8,16239
476.9,16350
477.0,16463
477.1,16580
477.2,16692
477.3,16803
477.4,16918
477.5,17041
477.6,17165
477.7,17290
477.8,17400
477.9,17511
478.0,17633
478.1,17755
478.2,17876
478.3,17984
478.4,18098
478.5,18222
478.6,18346
478.7,18472
478.8,18599
478.9,18715
479.0,18836
479.1,18971
479.2,19108
479.3,19249
479.4,19375
479.5,19510
479.6,19658
479.7,19810
479.8,19964
479.9,20119
480.0,20260
480.1,20402
480.2,20559
480.3,20714
480.4,20866
480.5,21018
480.6,21156
480.7,21291
480.8,21441
480.9,21590
481.0,21740
481.1,21874
481.2,22012
481.3,22164
481.4,22317
481.5,22472
481.6,22628
481.7,22768
481.8,22906
481.9,23058
482.0,23209
482.1,23357
482.2,23504
482.3,23638
482.4,23764
482.5,23908
482.6,24049
482.7,24189
482.8,24313
482.9,24435
483.0,24571
483.1,24706
483.2,24839
483.3,24960
483.4,25076
483.5,25194
483.6,25317
483.7,25438
483.8,25556
483.9,25661
484.0,25761
484.1,25874
484.2,25983
484.3,26090
484.4,26186
484.5,26278
484.6,26373
484.7,26471
484.8,26567
484.9,26662
485.0,26748
485.1,26831
485.2,26918
485.3,27014
485.4,27113
485.5,27213
485.6,27304
485.7,27392
485.8,27497
485.9,27604
486.0,27713
486.1,27815
486.2,27913
486.3,28015
486.4,28125
486.5,28236
486.6,28346
486.7,28449
486.8,28547
486.9,28663
487.0,28782
487.1,28903
487.2,29019
487.3,29134
487.4,29254
487.5,29387
487.6,29523
487.7,29664
487.8,29802
487.9,29939
488.0,30078
488.1,30233
488.2,30393
488.3,30549
488.4,30703
488.5,30860
488.6,31031
488.7,31202
488.8,31365
488.9,31529
489.0,31695
489.1,31850
489.2,32019
489.3,32186
489.4,32343
489.5,32493
489.6,32644
489.7,32804
489.8,32964
489.9,33113
490.0,33264
490.1,33415
490.2,33556
490.3,33707
490.4,33855
490.5,33994
490.6,34131
490.7,34270
490.8,34399
490.9,34534
491.0,34670
491.1,34798
491.2,34921
491.3,35044
491.4,35174
491.5,35302
491.6,35423
491.7,35542
491.8,35664
491.9,35776
492.0,35894
492.1,36012
492.2,36123
492.3,36226
492.4,36329
492.5,36439
492.6,36550
492.7,36654
492.8,36759
492.9,36868
493.0,36972
493.1,37085
493.2,37200
493.3,37312
493.4,37424
493.5,37544
493.6,37659
493.7,37784
493.8,37909
493.9,38038
494.0,38172
494.1,38301
494.2,38442
494.3,38581
494.4,38727
494.5,38880
494.6,39036
494.7,39183
494.8,39344
494.9,39505
495.0,39670
495.1,39839
495.2,40001
495.3,40178
495.4,40355
495.5,40538
495.6,40726
495.7,40916
495.8,41097
495.9,41293
496.0,41492
496.1,41694
496.2,41903
496.3,42115
496.4,42313
496.5,42524
496.6,42739
496.7,42953
496.8,43170
496.9,43372
497.0,43589
497.1,43807
497.2,44026
497.3,44251
497.4,44478
497.5,44691
497.6,44916
497.7,45147
497.8,45379
497.9,45613
498.0,45830
498.1,46063
498.2,46296
498.3,46528
498.4,46759
498.5,46986
498.6,47191
498.7,47406
498.8,47622
498.9,47833
499.0,48044
499.1,48252
499.2,48441
499.3,48634
499.4,48831
499.5,49026
499.6,49220
499.7,49398
499.8,49584
499.9,49772
500.0,49961
500.1,50149
500.2,50337
500.3,50511
500.4,50691
500.5,50874
500.6,51056
500.7,51234
500.8,51408
500.9,51567
501.0,51726
501.1,51885
501.2,52039
501.3,52185
501.4,52315
501.5,52447
501.6,52579
501.7,52708
501.8,52833
501.9,52955
502.0,53067
502.1,53182
502.2,53300
502.3,53416
502.4,53528
502.5,53630
502.6,53735
502.7,53839
502.8,53938
502.9,54036
503.0,54130
503.1,54217
503.2,54304
503.3,54394
503.4,54479
503.5,54564
503.6,54649
503.7,54731
503.8,54813
503.9,54898
504.0,54982
504.1,55067
504.2,55150
504.3,55239
504.4,55335
504.5,55430
504.6,55527
504.7,55625
504.8,55723
504.9,55824
505.0,55928
505.1,56034
505.2,56139
505.3,56242
505.4,56346
505.5,56452
505.6,56560
505.7,56669
505.8,56782
505.9,56896
506.0,57015
506.1,57140
506.2,57270
506.3,57407
506.4,57551
506.5,57696
506.6,57845
506.7,58001
506.8,58161
506.9,58323
507.0,58486
507.1,58650
507.2,58818
507.3,58987
507.4,59154
507.5,59317
507.6,59477
507.7,59634
507.8,59792
507.9,59946
508.0,60097
508.1,60245
508.2,60388
508.3,60529
508.4,60669
508.5,60811
508.6,60956
508.7,61110
508.8,61265
508.9,61415
509.0,61558
509.1,61715
509.2,61875
509.3,62042
509.4,62211
509.5,62372
509.6,62518
509.7,62671
509.8,62831
509.9,62989
510.0,63137
510.1,63282
510.2,63413
510.3,63561
510.4,63709
510.5,63849
510.6,63988
510.7,64124
510.8,64248
510.9,64382
511.0,64519
511.1,64646
511.2,64772
511.3,64896
511.4,65020
511.5,65140
511.6,65257
511.7,65373
511.8,65489
511.9,65605
512.0,65719
512.1,65831
512.2,65943
512.3,66045
512.4,66145
512.5,66244
512.6,66351
512.7,66454
512.8,66541
512.9,66634
513.0,66724
513.1,66827
513.2,66928
513.3,67020
513.4,67108
513.5,67201
513.6,67289
513.7,67383
513.8,67472
513.9,67545
514.0,67608
514.1,67670
514.2,67727
514.3,67787
514.4,67846
514.5,67889
514.6,67926
514.7,67963
514.8,68008
514.9,68051
515.0,68084
515.1,68115
515.2,68146
515.3,68174
515.4,68210
515.5,68249
515.6,68275
515.7,68302
515.8,68331
515.9,68371
516.0,68409
516.1,68437
516.2,68464
516.3,68490
516.4,68514
516.5,68547
516.6,68580
516.7,68598
516.8,68614
516.9,68627
517.0,68639
517.1,68660
517.2,68688
517.3,68704
517.4,68723
517.5,68744
517.6,68779
517.7,68815
517.8,68842
517.9,68868
518.0,68899
518.1,68945
518.2,68988
518.3,69023
518.4,69059
518.5,69096
518.6,69137
518.7,69193
518.8,69252
518.9,69303
519.0,69356
519.1,69405
519.2,69456
519.3,69517
519.4,69579
519.5,69623
519.6,69665
519.7,69701
519.8,69748
519.9,69794
520.0,69827
520.1,69856
520.2,69882
520.3,69906
520.4,69939
520.5,69976
520.6,69998
520.7,70017
520.8,70032
520.9,70056
521.0,70074
521.1,70081
521.2,70086
521.3,70090
521.4,70093
521.5,70109
521.6,70126
521.7,70133
521.8,70141
521.9,70149
522.0,70158
522.1,70176
522.2,70196
522.3,70202
522.4,70209
522.5,70214
522.6,70229
522.7,70243
522.8,70246
522.9,70253
523.0,70262
523.1,70285
523.2,70305
523.3,70317
523.4,70328
523.5,70337
523.6,70345
523.7,70363
523.8,70381
523.9,70389
524.0,70395
524.1,70402
524.2,70412
524.3,70433
524.4,70462
524.5,70484
524.6,70512
524.7,70546
524.8,70592
524.9,70640
525.0,70683
525.1,70728
525.2,70774
525.3,70819
525.4,70871
525.5,70925
525.6,70971
525.7,71018
525.8,71066
525.9,71127
526.0,71182
526.1,71227
526.2,71275
526.3,71326
526.4,71380
526.5,71442
526.6,71501
526.7,71547
526.8,71599
526.9,71651
527.0,71704
527.1,71768
527.2,71838
527.3,71899
527.4,71956
527.5,72017
527.6,72091
527.7,72167
527.8,72234
527.9,72298
528.0,72357
528.1,72430
528.2,72500
528.3,72561
528.4,72620
528.5,72680
528.6,72736
528.7,72804
528.8,72873
528.9,72933
529.0,72994
529.1,73054
529.2,73107
529.3,73167
529.4,73230
529.5,73279
529.6,73325
529.7,73368
529.8,73408
529.9,73451
530.0,73495
530.1,73527
530.2,73559
530.3,73590
530.4,73629
530.5,73666
530.6,73691
530.7,73716
530.8,73737
530.9,73767
531.0,73793
531.1,73808
531.2,73819
531.3,73826
531.4,73828
531.5,73837
531.6,73843
531.7,73836
531.8,73824
531.9,73807
532.0,73787
532.1,73770
532.2,73752
532.3,73719
532.4,73688
532.5,73652
532.6,73622
532.7,73590
532.8,73549
532.9,73509
533.0,73468
533.1,73441
533.2,73410
533.3,73371
533.4,73333
533.5,73294
533.6,73253
533.7,73224
533.8,73191
533.9,73147
534.0,73102
534.1,73057
534.2,73010
534.3,72973
534.4,72938
534.5,72890
534.6,72843
534.7,72797
534.8,72752
534.9,72717
535.0,72688
535.1,72642
535.2,72596
535.3,72551
535.4,72517
535.5,72484
535.6,72442
535.7,72396
535.8,72351
535.9,72318
536.0,72281
536.1,72236
536.2,72192
536.3,72155
536.4,72116
536.5,72087
536.6,72060
536.7,72023
536.8,71987
536.9,71954
537.0,71919
537.1,71892
537.2,71869
537.3,71833
537.4,71794
537.5,71757
537.6,71728
537.7,71697
537.8,71653
537.9,71609
538.0,71565
538.1,71535
538.2,71496
538.3,71444
538.4,71390
538.5,71334
538.6,71276
538.7,71215
538.8,71162
538.9,71113
539.0,71041
539.1,70965
539.2,70889
539.3,70825
539.4,70764
539.5,70694
539.6,70618
539.7,70541
539.8,70464
539.9,70398
540.0,70339
540.1,70271
540.2,70198
540.3,70126
540.4,70065
540.5,70003
540.6,69930
540.7,69860
540.8,69786
540.9,69727
541.0,69666
541.1,69595
541.2,69525
541.3,69459
541.4,69387
541.5,69328
541.6,69270
541.7,69201
541.8,69137
541.9,69076
542.0,69021
542.1,68977
542.2,68937
542.3,68884
542.4,68834
542.5,68787
542.6,68760
542.7,68730
542.8,68686
542.9,68638
543.0,68586
543.1,68532
543.2,68492
543.3,68452
543.4,68393
543.5,68332
543.6,68269
543.7,68207
543.8,68157
543.9,68116
544.0,68054
544.1,67994
544.2,67934
544.3,67889
544.4,67847
544.5,67793
544.6,67732
544.7,67671
544.8,67608
544.9,67555
545.0,67506
545.1,67438
545.2,67371
545.3,67295
545.4,67228
545.5,67157
545.6,67070
545.7,66983
545.8,66904
545.9,66838
546.0,66767
546.1,66686
546.2,66607
546.3,66535
546.4,66469
546.5,66409
546.6,66367
546.7,66333
546.8,66283
546.9,66234
547.0,66188
547.1,66161
547.2,66129
547.3,66084
547.4,66038
547.5,65992
547.6,65949
547.7,65906
547.8,65878
547.9,65858
548.0,65823
548.1,65789
548.2,65759
548.3,65732
548.4,65721
548.5,65719
548.6,65701
548.7,65687
548.8,65678
548.9,65693
549.0,65707
549.1,65709
549.2,65714
549.3,65720
549.4,65725
549.5,65748
549.6,65772
549.7,65777
549.8,65782
549.9,65783
550.0,65781
550.1,65793
550.2,65805
550.3,65800
550.4,65796
550.5,65792
550.6,65786
550.7,65796
550.8,65805
550.9,65794
551.0,65784
551.1,65770
551.2,65753
551.3,65750
551.4,65743
551.5,65714
551.6,65682
551.7,65646
551.8,65607
551.9,65582
552.0,65554
552.1,65505
552.2,65452
552.3,65395
552.4,65334
552.5,65285
552.6,65233
552.7,65159
552.8,65082
552.9,65002
553.0,64919
553.1,64852
553.2,64782
553.3,64693
553.4,64604
553.5,64516
553.6,64428
553.7,64358
553.8,64285
553.9,64193
554.0,64099
554.1,64005
554.2,63909
554.3,63830
554.4,63749
554.5,63648
554.6,63545
554.7,63440
554.8,63337
554.9,63252
555.0,63169
555.1,63068
555.2,62969
555.3,62873
555.4,62807
555.5,62732
555.6,62643
555.7,62555
555.8,62472
555.9,62391
556.0,62312
556.1,62251
556.2,62197
556.3,62123
556.4,62051
556.5,61980
556.6,61932
556.7,61879
556.8,61814
556.9,61751
557.0,61690
557.1,61631
557.2,61576
557.3,61540
557.4,61514
557.5,61471
557.6,61432
557.7,61396
557.8,61363
557.9,61348
558.0,61341
558.1,61314
558.2,61289
558.3,61265
558.4,61261
558.5,61251
558.6,61226
558.7,61201
558.8,61175
558.9,61150
559.0,61124
559.1,61114
559.2,61110
559.3,61084
559.4,61059
559.5,61035
559.6,61035
559.7,61030
559.8,61010
559.9,60991
560.0,60972
560.1,60952
560.2,60932
560.3,60926
560.4,60925
560.5,60898
560.6,60868
560.7,60831
560.8,60790
560.9,60759
561.0,60729
561.1,60673
561.2,60612
561.3,60546
561.4,60499
561.5,60446
561.6,60377
561.7,60301
561.8,60220
561.9,60138
562.0,60072
562.1,60003
562.2,59913
562.3,59820
562.4,59727
562.5,59631
562.6,59552
562.7,59469
562.8,59366
562.9,59260
563.0,59152
563.1,59042
563.2,58947
563.3,58850
563.4,58729
563.5,58603
563.6,58473
563.7,58341
563.8,58225
563.9,58108
564.0,57974
564.1,57841
564.2,57709
564.3,57579
564.4,57468
564.5,57361
564.6,57238
564.7,57117
564.8,56999
564.9,56884
565.0,56787
565.1,56691
565.2,56578
565.3,56467
565.4,56358
565.5,56252
565.6,56165
565.7,56079
565.8,55977
565.9,55875
566.0,55772
566.1,55669
566.2,55584
566.3,55500
566.4,55402
566.5,55307
566.6,55212
566.7,55120
566.8,55048
566.9,54981
567.0,54904
567.1,54835
567.2,54772
567.3,54712
567.4,54670
567.5,54631
567.6,54578
567.7,54532
567.8,54484
567.9,54456
568.0,54422
568.1,54375
568.2,54325
568.3,54275
568.4,54225
568.5,54177
568.6,54142
568.7,54112
568.8,54066
568.9,54018
569.0,53972
569.1,53941
569.2,53905
569.3,53858
569.4,53810
569.5,53760
569.6,53708
569.7,53653
569.8,53608
569.9,53565
570.0,53502
570.1,53436
570.2,53367
570.3,53294
570.4,53228
570.5,53161
570.6,53074
570.7,52981
570.8,52884
570.9,52799
571.0,52706
571.1,52598
571.2,52486
571.3,52367
571.4,52243
571.5,52117
571.6,51999
571.7,51884
571.8,51751
571.9,51612
572.0,51468
572.1,51333
572.2,51191
572.3,51035
572.4,50878
572.5,50720
572.6,50559
572.7,50396
572.8,50243
572.9,50094
573.0,49935
573.1,49779
573.2,49630
573.3,49484
573.4,49349
573.5,49220
573.6,49081
573.7,48943
573.8,48809
573.9,48695
574.0,48579
574.1,48448
574.2,48320
574.3,48193
574.4,48068
574.5,47957
574.6,47850
574.7,47736
574.8,47625
574.9,47521
575.0,47422
575.1,47337
575.2,47256
575.3,47169
575.4,47088
575.5,47015
575.6,46948
575.7,46898
575.8,46853
575.9,46803
576.0,46757
576.1,46717
576.2,46680
576.3,46657
576.4,46636
576.5,46606
576.6,46577
576.7,46549
576.8,46523
576.9,46507
577.0,46494
577.1,46471
577.2,46451
577.3,46435
577.4,46422
577.5,46412
577.6,46415
577.7,46420
577.8,46414
577.9,46408
578.0,46403
578.1,46396
578.2,46387
578.3,46386
578.4,46387
578.5,46373
578.6,46357
578.7,46337
578.8,46316
578.9,46305
579.0,46290
579.1,46265
579.2,46239
579.3,46208
579.4,46175
579.5,46140
579.6,46114
579.7,46084
579.8,46041
579.9,45997
580.0,45949
580.1,45895
580.2,45833
580.3,45779
580.4,45724
580.5,45653
580.6,45577
580.7,45489
580.8,45404
580.9,45330
581.0,45252
581.1,45161
581.2,45065
581.3,44975
581.4,44885
581.5,44786
581.6,44706
581.7,44625
581.8,44532
581.9,44437
582.0,44333
582.1,44233
582.2,44131
582.3,44040
582.4,43944
582.5,43832
582.6,43725
582.7,43617
582.8,43509
582.9,43394
583.0,43296
583.1,43204
583.2,43097
583.3,42986
583.4,42887
583.5,42790
583.6,42712
583.7,42629
583.8,42536
583.9,42451
584.0,42369
584.1,42290
584.2,42211
584.3,42140
584.4,42085
584.5,42036
584.6,41972
584.7,41906
584.8,41851
584.9,41800
585.0,41766
585.1,41733
585.2,41686
585.3,41645
585.4,41604
585.5,41564
585.6,41528
585.7,41509
585.8,41490
585.9,41456
586.0,41418
586.1,41383
586.2,41349
586.3,41314
586.4,41288
586.5,41263
586.6,41223
586.7,41182
586.8,41139
586.9,41090
587.0,41041
587.1,41002
587.2,40965
587.3,40907
587.4,40851
587.5,40794
587.6,40734
587.7,40669
587.8,40611
587.9,40558
588.0,40487
588.1,40415
588.2,40332
588.3,40250
588.4,40178
588.5,40101
588.6,40007
588.7,39903
588.8,39804
588.9,39702
589.0,39597
589.1,39495
589.2,39392
589.3,39279
589.4,39166
589.5,39042
589.6,38923
589.7,38804
589.8,38694
589.9,38585
590.0,38457
590.1,38337
590.2,38217
590.3,38096
590.4,37980
590.5,37864
590.6,37743
590.7,37623
590.8,37502
590.9,37370
591.0,37244
591.1,37131
591.2,37013
591.3,36881
591.4,36755
591.5,36629
591.6,36501
591.7,36365
591.8,36246
591.9,36135
592.0,36015
592.1,35897
592.2,35771
592.3,35656
592.4,35559
592.5,35461
592.6,35354
592.7,35246
592.8,35146
592.9,35048
593.0,34943
593.1,34857
593.2,34771
593.3,34678
593.4,34584
593.5,34482
593.6,34390
593.7,34298
593.8,34217
593.9,34133
594.0,34035
594.1,33942
594.2,33849
594.3,33757
594.4,33661
594.5,33581
594.6,33507
594.7,33423
594.8,33340
594.9,33255
595.0,33181
595.1,33124
595.2,33066
595.3,33001
595.4,32942
595.5,32883
595.6,32827
595.7,32770
595.8,32718
595.9,32678
596.0,32642
596.1,32596
596.2,32546
596.3,32501
596.4,32458
596.5,32428
596.6,32397
596.7,32355
596.8,32316
596.9,32278
597.0,32239
597.1,32204
597.2,32181
597.3,32160
597.4,32130
597.5,32100
597.6,32073
597.7,32049
597.8,32027
597.9,32016
598.0,32010
598.1,31995
598.2,31982
598.3,31973
598.4,31964
598.5,31956
598.6,31957
598.7,31964
598.8,31960
598.9,31957
599.0,31955
599.1,31953
599.2,31952
599.3,31960
599.4,31973
599.5,31975
599.6,31978
599.7,31981
599.8,31983
599.9,31995
600.0,32008
600.1,32008
600.2,32009
600.3,32009
600.4,32007
600.5,32004
600.6,32010
600.7,32018
600.8,32015
600.9,32014
601.0,32013
601.1,32016
601.2,32021
601.3,32035
601.4,32053
601.5,32058
601.6,32062
601.7,32064
601.8,32065
601.9,32075
602.0,32081
602.1,32075
602.2,32067
602.3,32054
602.4,32037
602.5,32019
602.6,32010
602.7,31997
602.8,31969
602.9,31935
603.0,31897
603.1,31854
603.2,31803
603.3,31761
603.4,31718
603.5,31660
603.6,31599
603.7,31530
603.8,31464
603.9,31409
604.0,31350
604.1,31276
604.2,31196
604.3,31118
604.4,31036
604.5,30951
604.6,30868
604.7,30780
604.8,30683
604.9,30581
605.0,30468
605.1,30361
605.2,30252
605.3,30153
605.4,30048
605.5,29927
605.6,29809
605.7,29689
605.8,29567
605.9,29435
606.0,29314
606.1,29197
606.2,29069
606.3,28941
606.4,28802
606.5,28675
606.6,28562
606.7,28447
606.8,28323
606.9,28193
607.0,28074
607.1,27958
607.2,27834
607.3,27718
607.4,27613
607.5,27514
607.6,27403
607.7,27287
607.8,27186
607.9,27088
608.0,27003
608.1,26918
608.2,26824
608.3,26739
608.4,26657
608.5,26579
608.6,26500
608.7,26435
608.8,26376
608.9,26309
609.0,26243
609.1,26186
609.2,26131
609.3,26079
609.4,26036
609.5,25997
609.6,25951
609.7,25906
609.8,25863
609.9,25818
610.0,25775
610.1,25741
610.2,25712
610.3,25674
610.4,25634
610.5,25599
610.6,25564
610.7,25539
610.8,25512
610.9,25475
611.0,25438
611.1,25401
611.2,25359
611.3,25316
611.4,25282
611.5,25246
611.6,25198
611.7,25147
611.8,25100
611.9,25054
612.0,25009
612.1,24970
612.2,24933
612.3,24889
612.4,24845
612.5,24802
612.6,24754
612.7,24708
612.8,24670
612.9,24632
613.0,24578
613.1,24527
613.2,24474
613.3,24419
613.4,24369
613.5,24315
613.6,24253
613.7,24189
613.8,24123
613.9,24050
614.0,23981
614.1,23923
614.2,23864
614.3,23797
614.4,23727
614.5,23665
614.6,23605
614.7,23547
614.8,23496
614.9,23448
615.0,23393
615.1,23337
615.2,23275
615.3,23217
615.4,23166
615.5,23111
615.6,23044
615.7,22971
615.8,22903
615.9,22831
616.0,22757
616.1,22686
616.2,22614
616.3,22536
616.4,22458
616.5,22381
616.6,22297
616.7,22218
616.8,22149
616.9,22076
617.0,21995
617.1,21920
617.2,21848
617.3,21775
617.4,21698
617.5,21632
617.6,21569
617.7,21500
617.8,21432
617.9,21360
618.0,21294
618.1,21238
618.2,21181
618.3,21118
618.4,21055
618.5,21000
618.6,20948
618.7,20898
618.8,20848
618.9,20809
619.0,20776
619.1,20736
619.2,20694
619.3,20656
619.4,20618
619.5,20589
619.6,20558
619.7,20518
619.8,20481
619.9,20445
620.0,20409
620.1,20373
620.2,20347
620.3,20326
620.4,20300
620.5,20277
620.6,20255
620.7,20238
620.8,20225
620.9,20222
621.0,20222
621.1,20214
621.2,20206
621.3,20198
621.4,20188
621.5,20177
621.6,20172
621.7,20167
621.8,20150
621.9,20128
622.0,20103
622.1,20078
622.2,20058
622.3,20037
622.4,20005
622.5,19973
622.6,19941
622.7,19909
622.8,19876
622.9,19852
623.0,19832
623.1,19805
623.2,19777
623.3,19753
623.4,19729
623.5,19705
623.6,19687
623.7,19669
623.8,19643
623.9,19617
624.0,19588
624.1,19556
624.2,19524
624.3,19497
624.4,19472
624.5,19437
624.6,19401
624.7,19369
624.8,19337
624.9,19312
625.0,19286
625.1,19256
625.2,19226
625.3,19197
625.4,19166
625.5,19139
625.6,19119
625.7,19100
625.8,19072
625.9,19044
626.0,19019
626.1,18996
626.2,18972
626.3,18954
626.4,18937
626.5,18913
626.6,18887
626.7,18860
626.8,18832
626.9,18813
627.0,18792
627.1,18762
627.2,18730
627.3,18699
627.4,18666
627.5,18632
627.6,18603
627.7,18571
627.8,18533
627.9,18494
628.0,18452
628.1,18404
628.2,18359
628.3,18321
628.4,18282
628.5,18235
628.6,18186
628.7,18140
628.8,18096
628.9,18050
629.0,18013
629.1,17978
629.2,17936
629.3,17894
629.4,17847
629.5,17803
629.6,17768
629.7,17730
629.8,17684
629.9,17635
630.0,17590
630.1,17545
630.2,17500
630.3,17453
630.4,17413
630.5,17378
630.6,17336
630.7,17297
630.8,17257
630.9,17221
631.0,17197
631.1,17174
631.2,17146
631.3,17124
631.4,17106
631.5,17090
631.6,17077
631.7,17073
631.8,17071
631.9,17064
632.0,17059
632.1,17055
632.2,17052
632.3,17049
632.4,17053
632.5,17058
632.6,17054
632.7,17050
632.8,17045
632.9,17040
633.0,17033
633.1,17030
633.2,17028
633.3,17016
633.4,17002
633.5,16987
633.6,16973
633.7,16965
633.8,16956
633.9,16938
634.0,16921
634.1,16904
634.2,16887
634.3,16866
634.4,16853
634.5,16838
634.6,16814
634.7,16787
634.8,16754
634.9,16719
635.0,16681
635.1,16645
635.2,16605
635.3,16556
635.4,16506
635.5,16451
635.6,16389
635.7,16327
635.8,16271
635.9,16215
636.0,16148
636.1,16073
636.2,16003
636.3,15930
636.4,15862
636.5,15789
636.6,15704
636.7,15622
636.8,15537
636.9,15443
637.0,15354
637.1,15275
637.2,15195
637.3,15108
637.4,15016
637.5,14932
637.6,14849
637.7,14766
637.8,14688
637.9,14612
638.0,14533
638.1,14456
638.2,14378
638.3,14295
638.4,14222
638.5,14149
638.6,14071
638.7,13991
638.8,13907
638.9,13827
639.0,13748
639.1,13671
639.2,13594
639.3,13515
639.4,13438
639.5,13362
639.6,13282
639.7,13210
639.8,13148
639.9,13090
640.0,13027
640.1,12965
640.2,12911
640.3,12860
640.4,12818
640.5,12773
640.6,12723
640.7,12675
640.8,12628
640.9,12576
641.0,12531
641.1,12494
641.2,12457
641.3,12416
641.4,12377
641.5,12344
641.6,12318
641.7,12296
641.8,12277
641.9,12268
642.0,12266
642.1,12260
642.2,12257
642.3,12258
642.4,12261
642.5,12272
642.6,12284
642.7,12292
642.8,12302
642.9,12313
643.0,12326
643.1,12342
643.2,12366
643.3,12392
643.4,12414
643.5,12439
643.6,12471
643.7,12504
643.8,12540
643.9,12585
644.0,12637
644.1,12687
644.2,12737
644.3,12788
644.4,12840
644.5,12896
644.6,12955
644.7,13012
644.8,13060
644.9,13108
645.0,13148
645.1,13184
645.2,13223
645.3,13261
645.4,13290
645.5,13317
645.6,13342
645.7,13366
645.8,13390
645.9,13420
646.0,13450
646.1,13474
646.2,13499
646.3,13526
646.4,13551
646.5,13575
646.6,13603
646.7,13631
646.8,13649
646.9,13663
647.0,13672
647.1,13676
647.2,13675
647.3,13674
647.4,13670
647.5,13652
647.6,13627
647.7,13598
647.8,13566
647.9,13538
648.0,13505
648.1,13462
648.2,13420
648.3,13378
648.4,13334
648.5,13287
648.6,13248
648.7,13210
648.8,13165
648.9,13116
649.0,13073
649.1,13032
649.2,12991
649.3,12956
649.4,12923
649.5,12888
649.6,12853
649.7,12820
649.8,12786
649.9,12761
650.0,12735
650.1,12703
650.2,12670
650.3,12633
650.4,12597
650.5,12560
650.6,12528
650.7,12495
650.8,12454
650.9,12414
651.0,12373
651.1,12328
651.2,12284
651.3,12245
651.4,12206
651.5,12160
651.6,12111
651.7,12062
651.8,12011
651.9,11967
652.0,11918
652.1,11866
652.2,11817
652.3,11769
652.4,11723
652.5,11674
652.6,11633
652.7,11593
652.8,11547
652.9,11498
653.0,11451
653.1,11401
653.2,11347
653.3,11288
653.4,11230
653.5,11173
653.6,11108
653.7,11040
653.8,10965
653.9,10892
654.0,10825
654.1,10757
654.2,10683
654.3,10604
654.4,10532
654.5,10461
654.6,10397
654.7,10330
654.8,10261
654.9,10199
655.0,10139
655.1,10078
655.2,10025
655.3,9975
655.4,9932
655.5,9891
655.6,9845
655.7,9803
655.8,9761
655.9,9719
656.0,9675
656.1,9635
656.2,9598
656.3,9555
656.4,9512
656.5,9467
656.6,9427
656.7,9393
656.8,9359
656.9,9322
657.0,9289
657.1,9259
657.2,9231
657.3,9202
657.4,9180
657.5,9161
657.6,9138
657.7,9118
657.8,9099
657.9,9084
658.0,9072
658.1,9065
658.2,9061
658.3,9056
658.4,9053
658.5,9054
658.6,9057
658.7,9060
658.8,9067
658.9,9075
659.0,9080
659.1,9084
659.2,9087
659.3,9089
659.4,9093
659.5,9095
659.6,9091
659.7,9085
659.8,9079
659.9,9070
660.0,9059
660.1,9048
660.2,9036
660.3,9020
660.4,9003
660.5,8983
660.6,8963
660.7,8944
660.8,8927
660.9,8910
661.0,8893
661.1,8877
661.2,8863
661.3,8851
661.4,8844
661.5,8838
661.6,8831
661.7,8826
661.8,8821
661.9,8816
662.0,8809
662.1,8804
662.2,8797
662.3,8786
662.4,8774
662.5,8759
662.6,8743
662.7,8724
662.8,8709
662.9,8694
663.0,8677
663.1,8659
663.2,8643
663.3,8626
663.4,8612
663.5,8598
663.6,8582
663.7,8568
663.8,8554
663.9,8541
664.0,8529
664.1,8522
664.2,8516
664.3,8509
664.4,8504
664.5,8501
664.6,8500
664.7,8498
664.8,8497
664.9,8497
665.0,8499
665.1,8496
665.2,8492
665.3,8488
665.4,8484
665.5,8481
665.6,8478
665.7,8473
665.8,8466
665.9,8459
666.0,8453
666.1,8449
666.2,8442
666.3,8431
666.4,8420
666.5,8408
666.6,8394
666.7,8378
666.8,8363
666.9,8351
667.0,8340
667.1,8326
667.2,8314
667.3,8304
667.4,8293
667.5,8282
667.6,8272
667.7,8263
667.8,8251
667.9,8238
668.0,8222
668.1,8205
668.2,8188
668.3,8170
668.4,8149
668.5,8125
668.6,8103
668.7,8080
668.8,8054
668.9,8030
669.0,8006
669.1,7979
669.2,7951
669.3,7920
669.4,7893
669.5,7867
669.6,7844
669.7,7822
669.8,7800
669.9,7782
670.0,7765
670.1,7750
670.2,7737
670.3,7727
670.4,7718
670.5,7706
670.6,7693
670.7,7679
670.8,7665
670.9,7653
671.0,7640
671.1,7626
671.2,7614
671.3,7602
671.4,7591
671.5,7580
671.6,7572
671.7,7565
671.8,7554
671.9,7542
672.0,7528
672.1,7513
672.2,7498
672.3,7484
672.4,7471
672.5,7454
672.6,7437
672.7,7422
672.8,7404
672.9,7390
673.0,7376
673.1,7358
673.2,7339
673.3,7315
673.4,7290
673.5,7263
673.6,7236
673.7,7206
673.8,7172
673.9,7139
674.0,7106
674.1,7072
674.2,7034
674.3,6998
674.4,6961
674.5,6922
674.6,6880
674.7,6831
674.8,6785
674.9,6739
675.0,6688
675.1,6635
675.2,6586
675.3,6538
675.4,6492
675.5,6443
675.6,6400
675.7,6358
675.8,6315
675.9,6271
676.0,6224
676.1,6180
676.2,6135
676.3,6091
676.4,6044
676.5,5994
676.6,5947
676.7,5901
676.8,5854
676.9,5812
677.0,5773
677.1,5735
677.2,5696
677.3,5656
677.4,5620
677.5,5584
677.6,5551
677.7,5518
677.8,5484
677.9,5455
678.0,5427
678.1,5402
678.2,5380
678.3,5362
678.4,5347
678.5,5336
678.6,5326
678.7,5316
678.8,5310
678.9,5305
679.0,5302
679.1,5301
679.2,5303
679.3,5305
679.4,5310
679.5,5319
679.6,5330
679.7,5343
679.8,5359
679.9,5374
680.0,5392
680.1,5409
680.2,5425
680.3,5441
680.4,5458
680.5,5473
680.6,5487
680.7,5501
680.8,5516
680.9,5531
681.0,5546
681.1,5563
681.2,5582
681.3,5604
681.4,5626
681.5,5650
681.6,5676
681.7,5705
681.8,5734
681.9,5764
682.0,5794
682.1,5825
682.2,5858
682.3,5888
682.4,5918
682.5,5948
682.6,5977
682.7,6007
682.8,6035
682.9,6061
683.0,6088
683.1,6116
683.2,6144
683.3,6171
683.4,6198
683.5,6228
683.6,6257
683.7,6285
683.8,6315
683.9,6346
684.0,6377
684.1,6407
684.2,6434
684.3,6459
684.4,6486
684.5,6511
684.6,6532
684.7,6551
684.8,6569
684.9,6582
685.0,6593
685.1,6604
685.2,6612
685.3,6618
685.4,6621
685.5,6622
685.6,6620
685.7,6618
685.8,6617
685.9,6615
686.0,6611
686.1,6605
686.2,6597
686.3,6587
686.4,6578
686.5,6567
686.6,6553
686.7,6535
686.8,6515
686.9,6493
687.0,6467
687.1,6441
687.2,6415
687.3,6387
687.4,6357
687.5,6324
687.6,6293
687.7,6261
687.8,6231
687.9,6199
688.0,6163
688.1,6128
688.2,6091
688.3,6053
688.4,6013
688.5,5975
688.6,5937
688.7,5897
688.8,5854
688.9,5814
689.0,5778
689.1,5745
689.2,5711
689.3,5677
689.4,5647
689.5,5617
689.6,5591
689.7,5565
689.8,5543
689.9,5524
690.0,5507
690.1,5490
690.2,5475
690.3,5464
690.4,5455
690.5,5449
690.6,5444
690.7,5440
690.8,5439
690.9,5439
691.0,5443
691.1,5448
691.2,5456
691.3,5465
691.4,5474
691.5,5488
691.6,5503
691.7,5520
691.8,5539
691.9,5561
692.0,5585
692.1,5608
692.2,5633
692.3,5657
692.4,5684
692.5,5708
692.6,5732
692.7,5755
692.8,5778
692.9,5798
693.0,5816
693.1,5832
693.2,5847
693.3,5860
693.4,5873
693.5,5883
693.6,5892
693.7,5901
693.8,5906
693.9,5910
694.0,5913
694.1,5912
694.2,5909
694.3,5903
694.4,5895
694.5,5884
694.6,5871
694.7,5855
694.8,5837
694.9,5818
695.0,5795
695.1,5772
695.2,5748
695.3,5724
695.4,5699
695.5,5667
695.6,5636
695.7,5601
695.8,5564
695.9,5526
696.0,5485
696.1,5442
696.2,5398
696.3,5351
696.4,5299
696.5,5249
696.6,5203
696.7,5156
696.8,5106
696.9,5060
697.0,5013
697.1,4965
697.2,4920
697.3,4880
697.4,4841
697.5,4801
697.6,4760
697.7,4724
697.8,4690
697.9,4656
698.0,4626
698.1,4598
698.2,4569
698.3,4539
698.4,4510
698.5,4482
698.6,4452
698.7,4425
698.8,4399
698.9,4372
699.0,4345
699.1,4318
699.2,4295
699.3,4274
699.4,4256
699.5,4240
699.6,4224
699.7,4210
699.8,4197
699.9,4186
700.0,4174
