Created as New Dataset,Sample 2530 By Analyst Date Thursday, December 19 2024
nm,INT
375.0,1341
375.1,1308
375.2,1267
375.3,1228
375.4,1192
375.5,1162
375.6,1132
375.7,1102
375.8,1076
375.9,1052
376.0,1028
376.1,1005
376.2,983
376.3,962
376.4,941
376.5,920
376.6,902
376.7,882
376.8,862
376.9,843
377.0,824
377.1,805
377.2,787
377.3,768
377.4,748
377.5,728
377.6,709
377.7,690
377.8,670
377.9,650
378.0,632
378.1,613
378.2,594
378.3,576
378.4,558
378.5,540
378.6,523
378.7,507
378.8,491
378.9,475
379.0,460
379.1,445
379.2,431
379.3,416
379.4,402
379.5,389
379.6,376
379.7,365
379.8,352
379.9,340
380.0,329
380.1,319
380.2,308
380.3,298
380.4,288
380.5,279
380.6,270
380.7,261
380.8,253
380.9,245
381.0,237
381.1,229
381.2,223
381.3,216
381.4,210
381.5,205
381.6,200
381.7,194
381.8,189
381.9,185
382.0,181
382.1,177
382.2,173
382.3,170
382.4,166
382.5,163
382.6,161
382.7,158
382.8,155
382.9,153
383.0,151
383.1,149
383.2,146
383.3,144
383.4,142
383.5,141
383.6,140
383.7,139
383.8,138
383.9,138
384.0,138
384.1,139
384.2,141
384.3,143
384.4,145
384.5,148
384.6,150
384.7,153
384.8,157
384.9,160
385.0,164
385.1,169
385.2,173
385.3,178
385.4,183
385.5,189
385.6,195
385.7,200
385.8,206
385.9,212
386.0,217
386.1,222
386.2,227
386.3,232
386.4,236
386.5,240
386.6,244
386.7,248
386.8,252
386.9,256
387.0,260
387.1,264
387.2,267
387.3,270
387.4,272
387.5,275
387.6,277
387.7,278
387.8,279
387.9,280
388.0,280
388.1,281
388.2,281
388.3,281
388.4,281
388.5,280
388.6,279
388.7,277
388.8,275
388.9,272
389.0,269
389.1,264
389.2,259
389.3,254
389.4,248
389.5,242
389.6,236
389.7,231
389.8,224
389.9,218
390.0,212
390.1,206
390.2,200
390.3,195
390.4,189
390.5,183
390.6,177
390.7,171
390.8,164
390.9,158
391.0,152
391.1,147
391.2,141
391.3,135
391.4,129
391.5,124
391.6,118
391.7,112
391.8,107
391.9,101
392.0,95
392.1,90
392.2,85
392.3,80
392.4,75
392.5,71
392.6,67
392.7,64
392.8,61
392.9,58
393.0,56
393.1,54
393.2,53
393.3,51
393.4,49
393.5,48
393.6,47
393.7,46
393.8,46
393.9,45
394.0,44
394.1,44
394.2,43
394.3,43
394.4,44
394.5,44
394.6,45
394.7,46
394.8,46
394.9,48
395.0,49
395.1,51
395.2,53
395.3,55
395.4,57
395.5,60
395.6,62
395.7,65
395.8,68
395.9,72
396.0,75
396.1,79
396.2,83
396.3,88
396.4,93
396.5,98
396.6,104
396.7,110
396.8,116
396.9,122
397.0,129
397.1,136
397.2,143
397.3,150
397.4,158
397.5,165
397.6,174
397.7,183
397.8,191
397.9,200
398.0,209
398.1,218
398.2,228
398.3,237
398.4,247
398.5,256
398.6,265
398.7,273
398.8,280
398.9,288
399.0,295
399.1,302
399.2,309
399.3,315
399.4,321
399.5,327
399.6,332
399.7,337
399.8,341
399.9,345
400.0,349
400.1,352
400.2,355
400.3,357
400.4,360
400.5,362
400.6,364
400.7,366
400.8,368
400.9,370
401.0,372
401.1,373
401.2,375
401.3,376
401.4,377
401.5,378
401.6,379
401.7,379
401.8,380
401.9,381
402.0,382
402.1,383
402.2,384
402.3,386
402.4,387
402.5,389
402.6,391
402.7,393
402.8,395
402.9,397
403.0,398
403.1,400
403.2,402
403.3,404
403.4,406
403.5,409
403.6,413
403.7,417
403.8,421
403.9,427
404.0,433
404.1,440
404.2,446
404.3,454
404.4,461
404.5,469
404.6,477
404.7,485
404.8,493
404.9,502
405.0,511
405.1,520
405.2,529
405.3,537
405.4,546
405.5,553
405.6,560
405.7,567
405.8,573
405.9,579
406.0,584
406.1,589
406.2,594
406.3,598
406.4,603
406.5,608
406.6,613
406.7,617
406.8,622
406.9,626
407.0,630
407.1,634
407.2,637
407.3,639
407.4,641
407.5,642
407.6,642
407.7,641
407.8,641
407.9,639
408.0,638
408.1,636
408.2,634
408.3,632
408.4,630
408.5,629
408.6,627
408.7,625
408.8,623
408.9,621
409.0,620
409.1,619
409.2,618
409.3,617
409.4,617
409.5,616
409.6,617
409.7,617
409.8,618
409.9,619
410.0,620
410.1,621
410.2,623
410.3,624
410.4,626
410.5,628
410.6,629
410.7,632
410.8,634
410.9,636
411.0,639
411.1,642
411.2,645
411.3,648
411.4,651
411.5,653
411.6,656
411.7,658
411.8,660
411.9,661
412.0,662
412.1,663
412.2,664
412.3,664
412.4,664
412.5,665
412.6,665
412.7,665
412.8,665
412.9,665
413.0,665
413.1,665
413.2,665
413.3,665
413.4,664
413.5,663
413.6,661
413.7,659
413.8,657
413.9,655
414.0,652
414.1,649
414.2,646
414.3,643
414.4,640
414.5,637
414.6,634
414.7,632
414.8,629
414.9,627
415.0,626
415.1,624
415.2,623
415.3,623
415.4,623
415.5,623
415.6,624
415.7,625
415.8,626
415.9,628
416.0,630
416.1,632
416.2,634
416.3,636
416.4,638
416.5,640
416.6,641
416.7,643
416.8,645
416.9,646
417.0,648
417.1,650
417.2,652
417.3,655
417.4,657
417.5,659
417.6,662
417.7,665
417.8,668
417.9,671
418.0,674
418.1,677
418.2,680
418.3,683
418.4,685
418.5,688
418.6,690
418.7,692
418.8,694
418.9,695
419.0,697
419.1,697
419.2,698
419.3,697
419.4,696
419.5,695
419.6,693
419.7,690
419.8,686
419.9,682
420.0,677
420.1,672
420.2,665
420.3,659
420.4,652
420.5,645
420.6,638
420.7,630
420.8,622
420.9,614
421.0,606
421.1,598
421.2,589
421.3,582
421.4,573
421.5,565
421.6,558
421.7,550
421.8,543
421.9,535
422.0,529
422.1,522
422.2,516
422.3,509
422.4,504
422.5,498
422.6,492
422.7,487
422.8,481
422.9,477
423.0,472
423.1,468
423.2,465
423.3,461
423.4,458
423.5,456
423.6,454
423.7,452
423.8,451
423.9,449
424.0,449
424.1,448
424.2,448
424.3,449
424.4,450
424.5,451
424.6,453
424.7,455
424.8,458
424.9,461
425.0,465
425.1,469
425.2,474
425.3,478
425.4,482
425.5,486
425.6,490
425.7,494
425.8,498
425.9,502
426.0,506
426.1,510
426.2,514
426.3,518
426.4,522
426.5,527
426.6,532
426.7,538
426.8,543
426.9,549
427.0,556
427.1,563
427.2,570
427.3,578
427.4,585
427.5,593
427.6,601
427.7,610
427.8,618
427.9,627
428.0,635
428.1,643
428.2,651
428.3,658
428.4,665
428.5,672
428.6,679
428.7,686
428.8,693
428.9,699
429.0,706
429.1,713
429.2,721
429.3,729
429.4,736
429.5,744
429.6,752
429.7,760
429.8,768
429.9,775
430.0,782
430.1,788
430.2,794
430.3,799
430.4,804
430.5,809
430.6,813
430.7,817
430.8,821
430.9,825
431.0,828
431.1,832
431.2,835
431.3,838
431.4,840
431.5,842
431.6,843
431.7,844
431.8,844
431.9,843
432.0,842
432.1,840
432.2,838
432.3,835
432.4,831
432.5,827
432.6,823
432.7,818
432.8,812
432.9,806
433.0,799
433.1,792
433.2,785
433.3,778
433.4,771
433.5,763
433.6,756
433.7,749
433.8,742
433.9,735
434.0,728
434.1,721
434.2,713
434.3,706
434.4,698
434.5,689
434.6,681
434.7,672
434.8,663
434.9,654
435.0,646
435.1,639
435.2,631
435.3,625
435.4,619
435.5,614
435.6,609
435.7,605
435.8,601
435.9,598
436.0,596
436.1,593
436.2,592
436.3,590
436.4,589
436.5,589
436.6,590
436.7,592
436.8,594
436.9,596
437.0,599
437.1,603
437.2,606
437.3,610
437.4,614
437.5,618
437.6,623
437.7,627
437.8,632
437.9,636
438.0,641
438.1,646
438.2,652
438.3,658
438.4,664
438.5,670
438.6,675
438.7,681
438.8,688
438.9,693
439.0,699
439.1,704
439.2,710
439.3,715
439.4,721
439.5,726
439.6,731
439.7,737
439.8,742
439.9,747
440.0,752
440.1,755
440.2,759
440.3,762
440.4,764
440.5,766
440.6,767
440.7,768
440.8,769
440.9,769
441.0,770
441.1,769
441.2,769
441.3,768
441.4,768
441.5,767
441.6,765
441.7,763
441.8,759
441.9,756
442.0,752
442.1,747
442.2,742
442.3,737
442.4,731
442.5,725
442.6,719
442.7,713
442.8,707
442.9,702
443.0,696
443.1,690
443.2,684
443.3,678
443.4,673
443.5,667
443.6,661
443.7,655
443.8,649
443.9,642
444.0,636
444.1,629
444.2,622
444.3,615
444.4,607
444.5,599
444.6,592
444.7,584
444.8,575
444.9,567
445.0,558
445.1,549
445.2,541
445.3,532
445.4,523
445.5,514
445.6,506
445.7,498
445.8,490
445.9,482
446.0,474
446.1,466
446.2,458
446.3,450
446.4,443
446.5,435
446.6,427
446.7,419
446.8,413
446.9,406
447.0,399
447.1,392
447.2,385
447.3,378
447.4,373
447.5,367
447.6,361
447.7,354
447.8,348
447.9,341
448.0,335
448.1,328
448.2,321
448.3,314
448.4,308
448.5,301
448.6,296
448.7,290
448.8,285
448.9,280
449.0,276
449.1,272
449.2,270
449.3,267
449.4,265
449.5,264
449.6,263
449.7,262
449.8,261
449.9,260
450.0,260
450.1,260
450.2,259
450.3,259
450.4,260
450.5,260
450.6,260
450.7,261
450.8,261
450.9,262
451.0,263
451.1,265
451.2,266
451.3,268
451.4,270
451.5,273
451.6,276
451.7,279
451.8,283
451.9,287
452.0,291
452.1,295
452.2,300
452.3,305
452.4,311
452.5,316
452.6,322
452.7,328
452.8,334
452.9,340
453.0,345
453.1,351
453.2,357
453.3,363
453.4,368
453.5,373
453.6,377
453.7,381
453.8,384
453.9,387
454.0,389
454.1,391
454.2,392
454.3,392
454.4,392
454.5,392
454.6,391
454.7,391
454.8,391
454.9,390
455.0,390
455.1,390
455.2,390
455.3,391
455.4,392
455.5,392
455.6,394
455.7,395
455.8,396
455.9,398
456.0,399
456.1,400
456.2,401
456.3,401
456.4,402
456.5,402
456.6,402
456.7,402
456.8,402
456.9,402
457.0,402
457.1,402
457.2,402
457.3,402
457.4,402
457.5,402
457.6,403
457.7,403
457.8,404
457.9,405
458.0,406
458.1,407
458.2,409
458.3,411
458.4,413
458.5,416
458.6,419
458.7,422
458.8,425
458.9,429
459.0,432
459.1,436
459.2,439
459.3,442
459.4,445
459.5,448
459.6,451
459.7,453
459.8,454
459.9,455
460.0,456
460.1,456
460.2,456
460.3,456
460.4,455
460.5,454
460.6,453
460.7,452
460.8,452
460.9,451
461.0,450
461.1,450
461.2,450
461.3,449
461.4,449
461.5,449
461.6,448
461.7,448
461.8,448
461.9,448
462.0,448
462.1,448
462.2,448
462.3,448
462.4,448
462.5,448
462.6,449
462.7,450
462.8,453
462.9,456
463.0,459
463.1,464
463.2,469
463.3,476
463.4,484
463.5,492
463.6,502
463.7,512
463.8,522
463.9,533
464.0,544
464.1,556
464.2,568
464.3,578
464.4,590
464.5,603
464.6,615
464.7,628
464.8,641
464.9,653
465.0,666
465.1,680
465.2,694
465.3,708
465.4,721
465.5,735
465.6,749
465.7,761
465.8,774
465.9,785
466.0,795
466.1,805
466.2,815
466.3,824
466.4,831
466.5,839
466.6,846
466.7,852
466.8,858
466.9,864
467.0,870
467.1,874
467.2,879
467.3,882
467.4,885
467.5,888
467.6,890
467.7,891
467.8,891
467.9,891
468.0,891
468.1,890
468.2,888
468.3,886
468.4,883
468.5,880
468.6,877
468.7,874
468.8,871
468.9,868
469.0,865
469.1,863
469.2,861
469.3,861
469.4,860
469.5,861
469.6,861
469.7,863
469.8,864
469.9,867
470.0,869
470.1,872
470.2,875
470.3,878
470.4,880
470.5,884
470.6,887
470.7,891
470.8,895
470.9,900
471.0,905
471.1,912
471.2,919
471.3,927
471.4,937
471.5,947
471.6,957
471.7,968
471.8,980
471.9,992
472.0,1004
472.1,1017
472.2,1030
472.3,1042
472.4,1055
472.5,1068
472.6,1080
472.7,1092
472.8,1103
472.9,1114
473.0,1125
473.1,1136
473.2,1146
473.3,1155
473.4,1164
473.5,1171
473.6,1179
473.7,1186
473.8,1192
473.9,1198
474.0,1203
474.1,1208
474.2,1212
474.3,1216
474.4,1220
474.5,1224
474.6,1227
474.7,1232
474.8,1237
474.9,1242
475.0,1247
475.1,1252
475.2,1258
475.3,1266
475.4,1274
475.5,1282
475.6,1290
475.7,1299
475.8,1309
475.9,1319
476.0,1330
476.1,1341
476.2,1352
476.3,1364
476.4,1376
476.5,1389
476.6,1402
476.7,1416
476.8,1431
476.9,1448
477.0,1466
477.1,1484
477.2,1503
477.3,1523
477.4,1544
477.5,1567
477.6,1592
477.7,1617
477.8,1642
477.9,1667
478.0,1694
478.1,1721
478.2,1749
478.3,1774
478.4,1799
478.5,1826
478.6,1852
478.7,1877
478.8,1901
478.9,1922
479.0,1943
479.1,1965
479.2,1987
479.3,2008
479.4,2026
479.5,2045
479.6,2064
479.7,2082
479.8,2101
479.9,2119
480.0,2135
480.1,2152
480.2,2169
480.3,2186
480.4,2203
480.5,2220
480.6,2235
480.7,2251
480.8,2268
480.9,2284
481.0,2300
481.1,2313
481.2,2326
481.3,2340
481.4,2353
481.5,2364
481.6,2375
481.7,2384
481.8,2392
481.9,2400
482.0,2408
482.1,2415
482.2,2423
482.3,2430
482.4,2436
482.5,2445
482.6,2455
482.7,2465
482.8,2475
482.9,2485
483.0,2497
483.1,2511
483.2,2525
483.3,2539
483.4,2553
483.5,2568
483.6,2585
483.7,2602
483.8,2619
483.9,2635
484.0,2651
484.1,2668
484.2,2684
484.3,2700
484.4,2714
484.5,2728
484.6,2742
484.7,2756
484.8,2770
484.9,2783
485.0,2795
485.1,2806
485.2,2817
485.3,2830
485.4,2841
485.5,2852
485.6,2862
485.7,2870
485.8,2879
485.9,2887
486.0,2895
486.1,2901
486.2,2907
486.3,2912
486.4,2917
486.5,2922
486.6,2927
486.7,2930
486.8,2933
486.9,2936
487.0,2939
487.1,2942
487.2,2944
487.3,2945
487.4,2946
487.5,2947
487.6,2947
487.7,2946
487.8,2945
487.9,2944
488.0,2943
488.1,2942
488.2,2941
488.3,2939
488.4,2938
488.5,2938
488.6,2939
488.7,2941
488.8,2943
488.9,2947
489.0,2952
489.1,2958
489.2,2966
489.3,2976
489.4,2986
489.5,2998
489.6,3011
489.7,3026
489.8,3042
489.9,3057
490.0,3074
490.1,3091
490.2,3108
490.3,3127
490.4,3146
490.5,3164
490.6,3182
490.7,3201
490.8,3219
490.9,3239
491.0,3260
491.1,3281
491.2,3301
491.3,3322
491.4,3345
491.5,3369
491.6,3394
491.7,3420
491.8,3447
491.9,3473
492.0,3502
492.1,3533
492.2,3563
492.3,3594
492.4,3624
492.5,3658
492.6,3692
492.7,3726
492.8,3760
492.9,3794
493.0,3827
493.1,3862
493.2,3897
493.3,3932
493.4,3966
493.5,4001
493.6,4034
493.7,4068
493.8,4103
493.9,4137
494.0,4172
494.1,4205
494.2,4241
494.3,4276
494.4,4312
494.5,4347
494.6,4382
494.7,4415
494.8,4450
494.9,4484
495.0,4519
495.1,4552
495.2,4583
495.3,4616
495.4,4648
495.5,4680
495.6,4712
495.7,4744
495.8,4774
495.9,4805
496.0,4836
496.1,4866
496.2,4896
496.3,4926
496.4,4954
496.5,4983
496.6,5011
496.7,5039
496.8,5067
496.9,5091
497.0,5118
497.1,5144
497.2,5171
497.3,5197
497.4,5223
497.5,5247
497.6,5273
497.7,5300
497.8,5327
497.9,5355
498.0,5382
498.1,5412
498.2,5442
498.3,5473
498.4,5506
498.5,5538
498.6,5569
498.7,5602
498.8,5637
498.9,5671
499.0,5705
499.1,5739
499.2,5771
499.3,5804
499.4,5838
499.5,5872
499.6,5906
499.7,5939
499.8,5973
499.9,6008
500.0,6044
500.1,6080
500.2,6117
500.3,6152
500.4,6188
500.5,6226
500.6,6264
500.7,6302
500.8,6339
500.9,6374
501.0,6409
501.1,6445
501.2,6480
501.3,6514
501.4,6544
501.5,6573
501.6,6602
501.7,6628
501.8,6654
501.9,6677
502.0,6697
502.1,6715
502.2,6732
502.3,6748
502.4,6762
502.5,6773
502.6,6783
502.7,6793
502.8,6799
502.9,6803
503.0,6804
503.1,6803
503.2,6801
503.3,6797
503.4,6791
503.5,6784
503.6,6774
503.7,6764
503.8,6753
503.9,6740
504.0,6727
504.1,6713
504.2,6698
504.3,6683
504.4,6667
504.5,6650
504.6,6632
504.7,6613
504.8,6596
504.9,6578
505.0,6560
505.1,6541
505.2,6524
505.3,6508
505.4,6492
505.5,6476
505.6,6460
505.7,6445
505.8,6431
505.9,6418
506.0,6406
506.1,6395
506.2,6384
506.3,6374
506.4,6366
506.5,6360
506.6,6356
506.7,6352
506.8,6349
506.9,6348
507.0,6349
507.1,6350
507.2,6351
507.3,6353
507.4,6355
507.5,6357
507.6,6358
507.7,6360
507.8,6361
507.9,6362
508.0,6363
508.1,6364
508.2,6366
508.3,6367
508.4,6369
508.5,6370
508.6,6373
508.7,6377
508.8,6381
508.9,6384
509.0,6388
509.1,6393
509.2,6398
509.3,6406
509.4,6414
509.5,6423
509.6,6432
509.7,6442
509.8,6454
509.9,6466
510.0,6479
510.1,6491
510.2,6502
510.3,6514
510.4,6527
510.5,6538
510.6,6550
510.7,6562
510.8,6574
510.9,6587
511.0,6601
511.1,6615
511.2,6630
511.3,6648
511.4,6667
511.5,6687
511.6,6708
511.7,6730
511.8,6754
511.9,6779
512.0,6804
512.1,6830
512.2,6856
512.3,6881
512.4,6908
512.5,6934
512.6,6961
512.7,6987
512.8,7011
512.9,7036
513.0,7061
513.1,7088
513.2,7114
513.3,7139
513.4,7163
513.5,7189
513.6,7214
513.7,7241
513.8,7268
513.9,7294
514.0,7318
514.1,7344
514.2,7369
514.3,7394
514.4,7420
514.5,7443
514.6,7462
514.7,7482
514.8,7501
514.9,7518
515.0,7533
515.1,7546
515.2,7557
515.3,7567
515.4,7578
515.5,7588
515.6,7596
515.7,7604
515.8,7612
515.9,7620
516.0,7628
516.1,7635
516.2,7640
516.3,7644
516.4,7647
516.5,7651
516.6,7653
516.7,7654
516.8,7654
516.9,7653
517.0,7651
517.1,7650
517.2,7650
517.3,7649
517.4,7648
517.5,7648
517.6,7649
517.7,7650
517.8,7650
517.9,7651
518.0,7652
518.1,7655
518.2,7659
518.3,7662
518.4,7665
518.5,7669
518.6,7675
518.7,7684
518.8,7694
518.9,7703
519.0,7713
519.1,7724
519.2,7736
519.3,7750
519.4,7765
519.5,7778
519.6,7793
519.7,7807
519.8,7823
519.9,7841
520.0,7858
520.1,7877
520.2,7897
520.3,7916
520.4,7938
520.5,7961
520.6,7983
520.7,8005
520.8,8027
520.9,8050
521.0,8071
521.1,8091
521.2,8112
521.3,8134
521.4,8155
521.5,8177
521.6,8198
521.7,8217
521.8,8238
521.9,8258
522.0,8279
522.1,8301
522.2,8322
522.3,8341
522.4,8360
522.5,8379
522.6,8399
522.7,8420
522.8,8439
522.9,8458
523.0,8477
523.1,8499
523.2,8520
523.3,8540
523.4,8559
523.5,8576
523.6,8593
523.7,8610
523.8,8625
523.9,8638
524.0,8649
524.1,8658
524.2,8664
524.3,8670
524.4,8675
524.5,8677
524.6,8678
524.7,8677
524.8,8676
524.9,8674
525.0,8668
525.1,8661
525.2,8654
525.3,8646
525.4,8639
525.5,8633
525.6,8625
525.7,8616
525.8,8606
525.9,8598
526.0,8590
526.1,8581
526.2,8571
526.3,8560
526.4,8547
526.5,8535
526.6,8522
526.7,8507
526.8,8490
526.9,8473
527.0,8454
527.1,8437
527.2,8419
527.3,8400
527.4,8381
527.5,8361
527.6,8342
527.7,8322
527.8,8302
527.9,8281
528.0,8262
528.1,8244
528.2,8225
528.3,8205
528.4,8187
528.5,8170
528.6,8155
528.7,8142
528.8,8129
528.9,8117
529.0,8105
529.1,8094
529.2,8085
529.3,8079
529.4,8073
529.5,8068
529.6,8063
529.7,8058
529.8,8054
529.9,8052
530.0,8051
530.1,8048
530.2,8045
530.3,8040
530.4,8035
530.5,8029
530.6,8020
530.7,8009
530.8,7999
530.9,7989
531.0,7978
531.1,7967
531.2,7956
531.3,7946
531.4,7937
531.5,7932
531.6,7928
531.7,7925
531.8,7924
531.9,7924
532.0,7924
532.1,7927
532.2,7931
532.3,7935
532.4,7941
532.5,7947
532.6,7956
532.7,7964
532.8,7972
532.9,7981
533.0,7988
533.1,7996
533.2,8003
533.3,8009
533.4,8015
533.5,8019
533.6,8021
533.7,8024
533.8,8026
533.9,8026
534.0,8027
534.1,8029
534.2,8032
534.3,8036
534.4,8040
534.5,8043
534.6,8047
534.7,8053
534.8,8059
534.9,8066
535.0,8074
535.1,8080
535.2,8087
535.3,8093
535.4,8101
535.5,8109
535.6,8116
535.7,8122
535.8,8127
535.9,8132
536.0,8135
536.1,8137
536.2,8138
536.3,8137
536.4,8135
536.5,8132
536.6,8128
536.7,8121
536.8,8114
536.9,8106
537.0,8097
537.1,8088
537.2,8079
537.3,8068
537.4,8056
537.5,8045
537.6,8034
537.7,8023
537.8,8010
537.9,7998
538.0,7988
538.1,7981
538.2,7973
538.3,7966
538.4,7958
538.5,7953
538.6,7949
538.7,7947
538.8,7947
538.9,7948
539.0,7950
539.1,7953
539.2,7956
539.3,7961
539.4,7967
539.5,7974
539.6,7981
539.7,7989
539.8,7997
539.9,8006
540.0,8016
540.1,8023
540.2,8031
540.3,8039
540.4,8048
540.5,8057
540.6,8064
540.7,8072
540.8,8083
540.9,8096
541.0,8109
541.1,8123
541.2,8137
541.3,8152
541.4,8168
541.5,8187
541.6,8207
541.7,8225
541.8,8242
541.9,8259
542.0,8275
542.1,8293
542.2,8311
542.3,8326
542.4,8340
542.5,8352
542.6,8365
542.7,8376
542.8,8384
542.9,8390
543.0,8395
543.1,8396
543.2,8397
543.3,8397
543.4,8394
543.5,8389
543.6,8382
543.7,8374
543.8,8368
543.9,8361
544.0,8350
544.1,8337
544.2,8322
544.3,8308
544.4,8293
544.5,8276
544.6,8256
544.7,8236
544.8,8215
544.9,8196
545.0,8178
545.1,8160
545.2,8144
545.3,8127
545.4,8113
545.5,8101
545.6,8088
545.7,8075
545.8,8063
545.9,8052
546.0,8041
546.1,8027
546.2,8012
546.3,7996
546.4,7980
546.5,7963
546.6,7946
546.7,7931
546.8,7914
546.9,7897
547.0,7881
547.1,7867
547.2,7854
547.3,7840
547.4,7826
547.5,7814
547.6,7804
547.7,7796
547.8,7790
547.9,7786
548.0,7781
548.1,7776
548.2,7772
548.3,7768
548.4,7767
548.5,7765
548.6,7759
548.7,7752
548.8,7742
548.9,7733
549.0,7722
549.1,7707
549.2,7692
549.3,7675
549.4,7655
549.5,7636
549.6,7617
549.7,7596
549.8,7574
549.9,7552
550.0,7529
550.1,7508
550.2,7487
550.3,7465
550.4,7442
550.5,7418
550.6,7393
550.7,7370
550.8,7347
550.9,7321
551.0,7296
551.1,7272
551.2,7248
551.3,7225
551.4,7203
551.5,7179
551.6,7157
551.7,7135
551.8,7114
551.9,7095
552.0,7077
552.1,7056
552.2,7037
552.3,7019
552.4,7002
552.5,6987
552.6,6972
552.7,6955
552.8,6939
552.9,6924
553.0,6910
553.1,6899
553.2,6890
553.3,6878
553.4,6867
553.5,6857
553.6,6850
553.7,6845
553.8,6842
553.9,6839
554.0,6837
554.1,6837
554.2,6839
554.3,6844
554.4,6851
554.5,6858
554.6,6866
554.7,6875
554.8,6884
554.9,6897
555.0,6910
555.1,6921
555.2,6932
555.3,6942
555.4,6954
555.5,6966
555.6,6976
555.7,6986
555.8,6995
555.9,7003
556.0,7011
556.1,7020
556.2,7030
556.3,7037
556.4,7043
556.5,7048
556.6,7055
556.7,7059
556.8,7059
556.9,7059
557.0,7059
557.1,7057
557.2,7053
557.3,7051
557.4,7048
557.5,7041
557.6,7033
557.7,7024
557.8,7015
557.9,7006
558.0,6998
558.1,6986
558.2,6973
558.3,6960
558.4,6948
558.5,6936
558.6,6923
558.7,6909
558.8,6897
558.9,6887
559.0,6876
559.1,6868
559.2,6862
559.3,6852
559.4,6843
559.5,6835
559.6,6828
559.7,6821
559.8,6812
559.9,6803
560.0,6795
560.1,6788
560.2,6783
560.3,6782
560.4,6783
560.5,6785
560.6,6790
560.7,6798
560.8,6809
560.9,6823
561.0,6840
561.1,6856
561.2,6874
561.3,6894
561.4,6918
561.5,6940
561.6,6960
561.7,6981
561.8,7001
561.9,7021
562.0,7043
562.1,7064
562.2,7082
562.3,7098
562.4,7112
562.5,7125
562.6,7139
562.7,7154
562.8,7165
562.9,7176
563.0,7186
563.1,7195
563.2,7206
563.3,7216
563.4,7223
563.5,7229
563.6,7231
563.7,7231
563.8,7230
563.9,7227
564.0,7219
564.1,7208
564.2,7194
564.3,7178
564.4,7161
564.5,7142
564.6,7120
564.7,7096
564.8,7070
564.9,7042
565.0,7014
565.1,6984
565.2,6951
565.3,6917
565.4,6880
565.5,6841
565.6,6801
565.7,6760
565.8,6715
565.9,6670
566.0,6623
566.1,6576
566.2,6529
566.3,6481
566.4,6431
566.5,6382
566.6,6335
566.7,6290
566.8,6248
566.9,6207
567.0,6166
567.1,6128
567.2,6094
567.3,6062
567.4,6033
567.5,6006
567.6,5978
567.7,5953
567.8,5926
567.9,5901
568.0,5875
568.1,5847
568.2,5820
568.3,5791
568.4,5763
568.5,5736
568.6,5710
568.7,5686
568.8,5660
568.9,5635
569.0,5612
569.1,5591
569.2,5572
569.3,5552
569.4,5533
569.5,5515
569.6,5498
569.7,5481
569.8,5467
569.9,5455
570.0,5442
570.1,5429
570.2,5415
570.3,5402
570.4,5389
570.5,5376
570.6,5362
570.7,5347
570.8,5331
570.9,5316
571.0,5300
571.1,5282
571.2,5265
571.3,5248
571.4,5231
571.5,5215
571.6,5198
571.7,5183
571.8,5166
571.9,5149
572.0,5132
572.1,5118
572.2,5103
572.3,5087
572.4,5072
572.5,5058
572.6,5046
572.7,5036
572.8,5029
572.9,5024
573.0,5019
573.1,5016
573.2,5015
573.3,5015
573.4,5017
573.5,5021
573.6,5024
573.7,5028
573.8,5034
573.9,5042
574.0,5050
574.1,5057
574.2,5066
574.3,5075
574.4,5083
574.5,5094
574.6,5104
574.7,5114
574.8,5123
574.9,5130
575.0,5138
575.1,5145
575.2,5153
575.3,5160
575.4,5167
575.5,5175
575.6,5182
575.7,5191
575.8,5199
575.9,5207
576.0,5215
576.1,5222
576.2,5228
576.3,5235
576.4,5241
576.5,5245
576.6,5248
576.7,5250
576.8,5250
576.9,5249
577.0,5247
577.1,5242
577.2,5234
577.3,5225
577.4,5215
577.5,5202
577.6,5189
577.7,5173
577.8,5156
577.9,5138
578.0,5120
578.1,5100
578.2,5080
578.3,5061
578.4,5041
578.5,5021
578.6,5002
578.7,4984
578.8,4967
578.9,4950
579.0,4935
579.1,4920
579.2,4905
579.3,4891
579.4,4879
579.5,4868
579.6,4858
579.7,4848
579.8,4838
579.9,4829
580.0,4820
580.1,4812
580.2,4804
580.3,4799
580.4,4795
580.5,4790
580.6,4787
580.7,4786
580.8,4786
580.9,4788
581.0,4791
581.1,4794
581.2,4799
581.3,4805
581.4,4812
581.5,4821
581.6,4833
581.7,4845
581.8,4857
581.9,4871
582.0,4885
582.1,4899
582.2,4913
582.3,4928
582.4,4943
582.5,4957
582.6,4970
582.7,4981
582.8,4991
582.9,5001
583.0,5013
583.1,5024
583.2,5033
583.3,5042
583.4,5049
583.5,5054
583.6,5060
583.7,5063
583.8,5064
583.9,5063
584.0,5059
584.1,5053
584.2,5044
584.3,5034
584.4,5024
584.5,5014
584.6,5000
584.7,4985
584.8,4970
584.9,4954
585.0,4939
585.1,4923
585.2,4905
585.3,4888
585.4,4870
585.5,4852
585.6,4834
585.7,4817
585.8,4800
585.9,4780
586.0,4759
586.1,4737
586.2,4714
586.3,4690
586.4,4665
586.5,4639
586.6,4612
586.7,4584
586.8,4556
586.9,4527
587.0,4499
587.1,4474
587.2,4450
587.3,4423
587.4,4400
587.5,4378
587.6,4358
587.7,4337
587.8,4318
587.9,4302
588.0,4285
588.1,4268
588.2,4251
588.3,4237
588.4,4224
588.5,4213
588.6,4200
588.7,4188
588.8,4177
588.9,4168
589.0,4158
589.1,4151
589.2,4144
589.3,4137
589.4,4132
589.5,4126
589.6,4122
589.7,4119
589.8,4117
589.9,4116
590.0,4114
590.1,4111
590.2,4108
590.3,4104
590.4,4101
590.5,4098
590.6,4093
590.7,4087
590.8,4082
590.9,4076
591.0,4070
591.1,4065
591.2,4060
591.3,4053
591.4,4048
591.5,4042
591.6,4037
591.7,4031
591.8,4027
591.9,4022
592.0,4015
592.1,4008
592.2,4001
592.3,3993
592.4,3985
592.5,3977
592.6,3966
592.7,3954
592.8,3941
592.9,3927
593.0,3912
593.1,3898
593.2,3885
593.3,3870
593.4,3855
593.5,3838
593.6,3822
593.7,3807
593.8,3794
593.9,3780
594.0,3765
594.1,3752
594.2,3738
594.3,3724
594.4,3709
594.5,3696
594.6,3682
594.7,3668
594.8,3652
594.9,3635
595.0,3618
595.1,3602
595.2,3584
595.3,3565
595.4,3547
595.5,3529
595.6,3511
595.7,3491
595.8,3473
595.9,3456
596.0,3440
596.1,3422
596.2,3402
596.3,3385
596.4,3367
596.5,3350
596.6,3333
596.7,3313
596.8,3294
596.9,3274
597.0,3253
597.1,3233
597.2,3214
597.3,3195
597.4,3175
597.5,3154
597.6,3134
597.7,3115
597.8,3096
597.9,3076
598.0,3057
598.1,3037
598.2,3018
598.3,2998
598.4,2976
598.5,2955
598.6,2935
598.7,2915
598.8,2893
598.9,2868
599.0,2845
599.1,2821
599.2,2796
599.3,2773
599.4,2750
599.5,2727
599.6,2705
599.7,2682
599.8,2662
599.9,2643
600.0,2626
600.1,2608
600.2,2591
600.3,2577
600.4,2563
600.5,2551
600.6,2541
600.7,2532
600.8,2525
600.9,2518
601.0,2513
601.1,2509
601.2,2507
601.3,2506
601.4,2507
601.5,2508
601.6,2510
601.7,2514
601.8,2519
601.9,2527
602.0,2535
602.1,2543
602.2,2553
602.3,2563
602.4,2576
602.5,2588
602.6,2601
602.7,2615
602.8,2627
602.9,2641
603.0,2654
603.1,2667
603.2,2681
603.3,2696
603.4,2710
603.5,2724
603.6,2738
603.7,2755
603.8,2770
603.9,2787
604.0,2803
604.1,2819
604.2,2836
604.3,2851
604.4,2865
604.5,2878
604.6,2892
604.7,2904
604.8,2914
604.9,2923
605.0,2932
605.1,2938
605.2,2943
605.3,2949
605.4,2953
605.5,2956
605.6,2959
605.7,2961
605.8,2964
605.9,2965
606.0,2968
606.1,2970
606.2,2972
606.3,2974
606.4,2976
606.5,2978
606.6,2980
606.7,2981
606.8,2981
606.9,2979
607.0,2978
607.1,2975
607.2,2971
607.3,2967
607.4,2964
607.5,2961
607.6,2956
607.7,2951
607.8,2947
607.9,2944
608.0,2942
608.1,2942
608.2,2941
608.3,2942
608.4,2943
608.5,2945
608.6,2949
608.7,2955
608.8,2962
608.9,2969
609.0,2977
609.1,2984
609.2,2991
609.3,2998
609.4,3006
609.5,3015
609.6,3021
609.7,3026
609.8,3030
609.9,3034
610.0,3037
610.1,3040
610.2,3043
610.3,3044
610.4,3045
610.5,3044
610.6,3044
610.7,3043
610.8,3042
610.9,3038
611.0,3034
611.1,3029
611.2,3023
611.3,3017
611.4,3011
611.5,3004
611.6,2995
611.7,2985
611.8,2976
611.9,2966
612.0,2956
612.1,2946
612.2,2935
612.3,2922
612.4,2910
612.5,2897
612.6,2883
612.7,2870
612.8,2858
612.9,2846
613.0,2833
613.1,2821
613.2,2808
613.3,2796
613.4,2784
613.5,2772
613.6,2759
613.7,2746
613.8,2733
613.9,2720
614.0,2708
614.1,2697
614.2,2688
614.3,2678
614.4,2670
614.5,2664
614.6,2659
614.7,2655
614.8,2653
614.9,2651
615.0,2650
615.1,2649
615.2,2648
615.3,2647
615.4,2647
615.5,2647
615.6,2646
615.7,2644
615.8,2643
615.9,2642
616.0,2639
616.1,2636
616.2,2632
616.3,2626
616.4,2620
616.5,2612
616.6,2604
616.7,2594
616.8,2586
616.9,2576
617.0,2565
617.1,2555
617.2,2545
617.3,2535
617.4,2524
617.5,2514
617.6,2503
617.7,2490
617.8,2477
617.9,2460
618.0,2443
618.1,2425
618.2,2406
618.3,2384
618.4,2359
618.5,2334
618.6,2309
618.7,2282
618.8,2254
618.9,2226
619.0,2199
619.1,2170
619.2,2139
619.3,2109
619.4,2078
619.5,2049
619.6,2019
619.7,1987
619.8,1957
619.9,1926
620.0,1896
620.1,1863
620.2,1833
620.3,1804
620.4,1775
620.5,1747
620.6,1717
620.7,1690
620.8,1664
620.9,1640
621.0,1617
621.1,1596
621.2,1576
621.3,1558
621.4,1540
621.5,1523
621.6,1508
621.7,1494
621.8,1480
621.9,1464
622.0,1449
622.1,1434
622.2,1419
622.3,1403
622.4,1386
622.5,1370
622.6,1354
622.7,1339
622.8,1323
622.9,1309
623.0,1296
623.1,1284
623.2,1273
623.3,1264
623.4,1256
623.5,1250
623.6,1244
623.7,1241
623.8,1238
623.9,1236
624.0,1236
624.1,1235
624.2,1236
624.3,1236
624.4,1236
624.5,1235
624.6,1234
624.7,1233
624.8,1233
624.9,1234
625.0,1235
625.1,1237
625.2,1240
625.3,1245
625.4,1253
625.5,1262
625.6,1273
625.7,1285
625.8,1299
625.9,1315
626.0,1330
626.1,1346
626.2,1362
626.3,1381
626.4,1399
626.5,1417
626.6,1436
626.7,1455
626.8,1476
626.9,1498
627.0,1519
627.1,1540
627.2,1563
627.3,1584
627.4,1604
627.5,1625
627.6,1648
627.7,1670
627.8,1690
627.9,1710
628.0,1730
628.1,1750
628.2,1769
628.3,1786
628.4,1803
628.5,1819
628.6,1834
628.7,1846
628.8,1857
628.9,1868
629.0,1878
629.1,1887
629.2,1895
629.3,1903
629.4,1911
629.5,1918
629.6,1924
629.7,1930
629.8,1934
629.9,1937
630.0,1938
630.1,1938
630.2,1936
630.3,1933
630.4,1929
630.5,1925
630.6,1919
630.7,1912
630.8,1904
630.9,1896
631.0,1889
631.1,1881
631.2,1872
631.3,1864
631.4,1856
631.5,1848
631.6,1841
631.7,1835
631.8,1830
631.9,1826
632.0,1823
632.1,1821
632.2,1819
632.3,1817
632.4,1816
632.5,1816
632.6,1816
632.7,1815
632.8,1814
632.9,1813
633.0,1812
633.1,1812
633.2,1812
633.3,1811
633.4,1811
633.5,1812
633.6,1812
633.7,1814
633.8,1816
633.9,1818
634.0,1821
634.1,1825
634.2,1828
634.3,1833
634.4,1839
634.5,1845
634.6,1851
634.7,1857
634.8,1864
634.9,1871
635.0,1877
635.1,1883
635.2,1889
635.3,1893
635.4,1895
635.5,1896
635.6,1896
635.7,1895
635.8,1893
635.9,1891
636.0,1887
636.1,1882
636.2,1876
636.3,1870
636.4,1864
636.5,1858
636.6,1851
636.7,1845
636.8,1838
636.9,1832
637.0,1827
637.1,1823
637.2,1820
637.3,1816
637.4,1812
637.5,1808
637.6,1804
637.7,1800
637.8,1796
637.9,1791
638.0,1785
638.1,1778
638.2,1771
638.3,1762
638.4,1754
638.5,1745
638.6,1736
638.7,1726
638.8,1713
638.9,1701
639.0,1689
639.1,1677
639.2,1664
639.3,1650
639.4,1635
639.5,1620
639.6,1604
639.7,1588
639.8,1573
639.9,1557
640.0,1541
640.1,1523
640.2,1507
640.3,1491
640.4,1477
640.5,1462
640.6,1447
640.7,1434
640.8,1421
640.9,1408
641.0,1397
641.1,1386
641.2,1376
641.3,1364
641.4,1351
641.5,1338
641.6,1323
641.7,1308
641.8,1290
641.9,1273
642.0,1255
642.1,1237
642.2,1217
642.3,1197
642.4,1179
642.5,1161
642.6,1144
642.7,1127
642.8,1110
642.9,1096
643.0,1083
643.1,1070
643.2,1059
643.3,1050
643.4,1040
643.5,1032
643.6,1025
643.7,1019
643.8,1014
643.9,1010
644.0,1006
644.1,1001
644.2,996
644.3,991
644.4,985
644.5,980
644.6,974
644.7,969
644.8,963
644.9,958
645.0,953
645.1,948
645.2,945
645.3,942
645.4,939
645.5,936
645.6,934
645.7,932
645.8,929
645.9,927
646.0,925
646.1,922
646.2,919
646.3,915
646.4,911
646.5,906
646.6,901
646.7,896
646.8,888
646.9,881
647.0,873
647.1,863
647.2,853
647.3,843
647.4,832
647.5,821
647.6,809
647.7,796
647.8,783
647.9,769
648.0,754
648.1,737
648.2,721
648.3,705
648.4,687
648.5,668
648.6,650
648.7,633
648.8,615
648.9,596
649.0,580
649.1,564
649.2,548
649.3,533
649.4,518
649.5,505
649.6,492
649.7,480
649.8,468
649.9,458
650.0,448
650.1,438
650.2,429
650.3,420
650.4,413
650.5,406
650.6,401
650.7,396
650.8,390
650.9,386
651.0,381
651.1,378
651.2,375
651.3,374
651.4,374
651.5,375
651.6,378
651.7,381
651.8,386
651.9,392
652.0,400
652.1,409
652.2,418
652.3,427
652.4,437
652.5,449
652.6,460
652.7,471
652.8,483
652.9,496
653.0,508
653.1,521
653.2,533
653.3,546
653.4,558
653.5,569
653.6,580
653.7,590
653.8,600
653.9,608
654.0,616
654.1,623
654.2,628
654.3,633
654.4,637
654.5,640
654.6,643
654.7,644
654.8,643
654.9,642
655.0,638
655.1,633
655.2,627
655.3,620
655.4,612
655.5,603
655.6,592
655.7,582
655.8,572
655.9,562
656.0,551
656.1,540
656.2,530
656.3,520
656.4,509
656.5,498
656.6,488
656.7,479
656.8,470
656.9,460
657.0,452
657.1,445
657.2,438
657.3,431
657.4,427
657.5,423
657.6,420
657.7,419
657.8,418
657.9,417
658.0,417
658.1,419
658.2,422
658.3,426
658.4,430
658.5,436
658.6,443
658.7,451
658.8,460
658.9,470
659.0,480
659.1,492
659.2,504
659.3,514
659.4,525
659.5,536
659.6,546
659.7,556
659.8,565
659.9,574
660.0,584
660.1,593
660.2,602
660.3,610
660.4,619
660.5,629
660.6,638
660.7,647
660.8,656
660.9,664
661.0,672
661.1,678
661.2,684
661.3,691
661.4,696
661.5,701
661.6,706
661.7,709
661.8,712
661.9,713
662.0,715
662.1,715
662.2,714
662.3,713
662.4,710
662.5,707
662.6,704
662.7,700
662.8,697
662.9,694
663.0,690
663.1,686
663.2,683
663.3,680
663.4,677
663.5,673
663.6,669
663.7,664
663.8,660
663.9,655
664.0,649
664.1,644
664.2,639
664.3,634
664.4,629
664.5,624
664.6,620
664.7,617
664.8,614
664.9,612
665.0,611
665.1,609
665.2,608
665.3,607
665.4,606
665.5,605
665.6,604
665.7,603
665.8,601
665.9,599
666.0,597
666.1,595
666.2,593
666.3,591
666.4,589
666.5,587
666.6,586
666.7,587
666.8,587
666.9,589
667.0,590
667.1,592
667.2,594
667.3,596
667.4,598
667.5,600
667.6,602
667.7,603
667.8,603
667.9,603
668.0,602
668.1,600
668.2,597
668.3,594
668.4,589
668.5,583
668.6,577
668.7,571
668.8,564
668.9,558
669.0,553
669.1,547
669.2,543
669.3,539
669.4,536
669.5,533
669.6,530
669.7,526
669.8,522
669.9,517
670.0,512
670.1,506
670.2,499
670.3,492
670.4,485
670.5,478
670.6,471
670.7,465
670.8,459
670.9,454
671.0,448
671.1,443
671.2,437
671.3,431
671.4,424
671.5,416
671.6,408
671.7,400
671.8,391
671.9,382
672.0,372
672.1,363
672.2,353
672.3,344
672.4,335
672.5,325
672.6,315
672.7,306
672.8,296
672.9,287
673.0,279
673.1,272
673.2,265
673.3,258
673.4,252
673.5,246
673.6,241
673.7,235
673.8,229
673.9,223
674.0,216
674.1,209
674.2,201
674.3,193
674.4,185
674.5,178
674.6,171
674.7,164
674.8,158
674.9,153
675.0,147
675.1,142
675.2,137
675.3,133
675.4,128
675.5,123
675.6,117
675.7,112
675.8,106
675.9,100
676.0,94
676.1,89
676.2,83
676.3,78
676.4,72
676.5,67
676.6,62
676.7,57
676.8,52
676.9,47
677.0,42
677.1,38
677.2,34
677.3,30
677.4,26
677.5,23
677.6,20
677.7,18
677.8,15
677.9,13
678.0,11
678.1,9
678.2,7
678.3,6
678.4,4
678.5,3
678.6,2
678.7,2
678.8,1
678.9,1
679.0,1
679.1,1
679.2,2
679.3,3
679.4,4
679.5,5
679.6,7
679.7,9
679.8,11
679.9,14
680.0,16
680.1,19
680.2,23
680.3,27
680.4,31
680.5,36
680.6,42
680.7,48
680.8,55
680.9,62
681.0,69
681.1,77
681.2,86
681.3,95
681.4,104
681.5,112
681.6,120
681.7,129
681.8,137
681.9,146
682.0,154
682.1,163
682.2,172
682.3,180
682.4,189
682.5,197
682.6,205
682.7,214
682.8,222
682.9,230
683.0,238
683.1,245
683.2,251
683.3,257
683.4,263
683.5,268
683.6,272
683.7,276
683.8,279
683.9,281
684.0,282
684.1,283
684.2,284
684.3,284
684.4,283
684.5,282
684.6,281
684.7,280
684.8,278
684.9,276
685.0,274
685.1,271
685.2,268
685.3,264
685.4,260
685.5,255
685.6,251
685.7,246
685.8,242
685.9,236
686.0,231
686.1,226
686.2,220
686.3,215
686.4,210
686.5,205
686.6,201
686.7,195
686.8,190
686.9,185
687.0,180
687.1,176
687.2,171
687.3,167
687.4,163
687.5,158
687.6,154
687.7,151
687.8,148
687.9,146
688.0,145
688.1,145
688.2,147
688.3,149
688.4,152
688.5,156
688.6,161
688.7,166
688.8,172
688.9,179
689.0,185
689.1,190
689.2,196
689.3,202
689.4,208
689.5,213
689.6,219
689.7,226
689.8,232
689.9,239
690.0,246
690.1,254
690.2,263
690.3,272
690.4,281
690.5,291
690.6,301
690.7,312
690.8,323
690.9,335
691.0,348
691.1,360
691.2,373
691.3,385
691.4,397
691.5,410
691.6,420
691.7,430
691.8,439
691.9,448
692.0,455
692.1,461
692.2,467
692.3,474
692.4,480
692.5,486
692.6,492
692.7,498
692.8,503
692.9,508
693.0,512
693.1,516
693.2,518
693.3,520
693.4,520
693.5,518
693.6,516
693.7,513
693.8,510
693.9,507
694.0,503
694.1,499
694.2,496
694.3,492
694.4,488
694.5,484
694.6,481
694.7,477
694.8,473
694.9,469
695.0,464
695.1,460
695.2,454
695.3,448
695.4,441
695.5,433
695.6,425
695.7,415
695.8,404
695.9,391
696.0,378
696.1,365
696.2,352
696.3,340
696.4,328
696.5,316
696.6,306
696.7,296
696.8,288
696.9,281
697.0,276
697.1,269
697.2,264
697.3,258
697.4,252
697.5,246
697.6,240
697.7,233
697.8,226
697.9,218
698.0,211
698.1,205
698.2,200
698.3,195
698.4,192
698.5,189
698.6,187
698.7,186
698.8,186
698.9,186
699.0,186
699.1,186
699.2,186
699.3,186
699.4,186
699.5,184
699.6,183
699.7,180
699.8,176
699.9,172
700.0,168
