Created as New Dataset,Sample 433 By Analyst Date Tuesday, June 13 2023
cm-1,%T
4000.00,100.00
3999.00,99.99
3998.00,99.99
3997.00,99.99
3996.00,100.00
3995.00,100.00
3994.00,99.98
3993.00,99.98
3992.00,99.98
3991.00,99.98
3990.00,99.98
3989.00,99.98
3988.00,99.98
3987.00,99.98
3986.00,99.97
3985.00,99.97
3984.00,99.98
3983.00,99.98
3982.00,99.98
3981.00,99.98
3980.00,99.98
3979.00,99.98
3978.00,99.98
3977.00,99.97
3976.00,99.97
3975.00,99.97
3974.00,99.97
3973.00,99.96
3972.00,99.96
3971.00,99.95
3970.00,99.95
3969.00,99.94
3968.00,99.94
3967.00,99.95
3966.00,99.95
3965.00,99.95
3964.00,99.95
3963.00,99.94
3962.00,99.94
3961.00,99.93
3960.00,99.93
3959.00,99.92
3958.00,99.92
3957.00,99.92
3956.00,99.93
3955.00,99.93
3954.00,99.93
3953.00,99.93
3952.00,99.93
3951.00,99.92
3950.00,99.91
3949.00,99.91
3948.00,99.90
3947.00,99.89
3946.00,99.88
3945.00,99.87
3944.00,99.86
3943.00,99.85
3942.00,99.85
3941.00,99.85
3940.00,99.86
3939.00,99.86
3938.00,99.86
3937.00,99.86
3936.00,99.87
3935.00,99.87
3934.00,99.87
3933.00,99.86
3932.00,99.84
3931.00,99.83
3930.00,99.82
3929.00,99.82
3928.00,99.82
3927.00,99.82
3926.00,99.83
3925.00,99.83
3924.00,99.84
3923.00,99.84
3922.00,99.83
3921.00,99.82
3920.00,99.81
3919.00,99.81
3918.00,99.81
3917.00,99.81
3916.00,99.81
3915.00,99.81
3914.00,99.82
3913.00,99.82
3912.00,99.83
3911.00,99.84
3910.00,99.85
3909.00,99.86
3908.00,99.85
3907.00,99.84
3906.00,99.81
3905.00,99.78
3904.00,99.75
3903.00,99.72
3902.00,99.70
3901.00,99.66
3900.00,99.64
3899.00,99.64
3898.00,99.66
3897.00,99.70
3896.00,99.73
3895.00,99.74
3894.00,99.75
3893.00,99.76
3892.00,99.76
3891.00,99.77
3890.00,99.77
3889.00,99.77
3888.00,99.75
3887.00,99.71
3886.00,99.69
3885.00,99.71
3884.00,99.73
3883.00,99.72
3882.00,99.69
3881.00,99.66
3880.00,99.66
3879.00,99.68
3878.00,99.71
3877.00,99.72
3876.00,99.71
3875.00,99.71
3874.00,99.72
3873.00,99.73
3872.00,99.72
3871.00,99.69
3870.00,99.66
3869.00,99.66
3868.00,99.67
3867.00,99.67
3866.00,99.64
3865.00,99.63
3864.00,99.65
3863.00,99.68
3862.00,99.69
3861.00,99.70
3860.00,99.71
3859.00,99.72
3858.00,99.72
3857.00,99.71
3856.00,99.68
3855.00,99.65
3854.00,99.63
3853.00,99.63
3852.00,99.63
3851.00,99.62
3850.00,99.60
3849.00,99.60
3848.00,99.63
3847.00,99.67
3846.00,99.71
3845.00,99.74
3844.00,99.76
3843.00,99.76
3842.00,99.75
3841.00,99.73
3840.00,99.70
3839.00,99.67
3838.00,99.65
3837.00,99.65
3836.00,99.65
3835.00,99.64
3834.00,99.64
3833.00,99.65
3832.00,99.67
3831.00,99.69
3830.00,99.73
3829.00,99.74
3828.00,99.75
3827.00,99.76
3826.00,99.77
3825.00,99.78
3824.00,99.78
3823.00,99.75
3822.00,99.71
3821.00,99.70
3820.00,99.70
3819.00,99.70
3818.00,99.67
3817.00,99.64
3816.00,99.64
3815.00,99.68
3814.00,99.73
3813.00,99.75
3812.00,99.76
3811.00,99.77
3810.00,99.79
3809.00,99.81
3808.00,99.81
3807.00,99.81
3806.00,99.82
3805.00,99.81
3804.00,99.78
3803.00,99.73
3802.00,99.70
3801.00,99.70
3800.00,99.73
3799.00,99.74
3798.00,99.71
3797.00,99.70
3796.00,99.71
3795.00,99.75
3794.00,99.79
3793.00,99.82
3792.00,99.83
3791.00,99.84
3790.00,99.86
3789.00,99.88
3788.00,99.89
3787.00,99.89
3786.00,99.88
3785.00,99.88
3784.00,99.88
3783.00,99.88
3782.00,99.87
3781.00,99.86
3780.00,99.85
3779.00,99.85
3778.00,99.85
3777.00,99.86
3776.00,99.86
3775.00,99.87
3774.00,99.88
3773.00,99.89
3772.00,99.89
3771.00,99.88
3770.00,99.87
3769.00,99.86
3768.00,99.86
3767.00,99.84
3766.00,99.82
3765.00,99.83
3764.00,99.84
3763.00,99.87
3762.00,99.87
3761.00,99.87
3760.00,99.87
3759.00,99.87
3758.00,99.87
3757.00,99.87
3756.00,99.86
3755.00,99.85
3754.00,99.84
3753.00,99.82
3752.00,99.81
3751.00,99.79
3750.00,99.76
3749.00,99.73
3748.00,99.71
3747.00,99.69
3746.00,99.65
3745.00,99.63
3744.00,99.66
3743.00,99.73
3742.00,99.78
3741.00,99.79
3740.00,99.79
3739.00,99.81
3738.00,99.85
3737.00,99.86
3736.00,99.86
3735.00,99.83
3734.00,99.79
3733.00,99.75
3732.00,99.75
3731.00,99.78
3730.00,99.83
3729.00,99.87
3728.00,99.90
3727.00,99.92
3726.00,99.94
3725.00,99.95
3724.00,99.95
3723.00,99.94
3722.00,99.93
3721.00,99.93
3720.00,99.94
3719.00,99.95
3718.00,99.96
3717.00,99.97
3716.00,99.97
3715.00,99.97
3714.00,99.97
3713.00,99.97
3712.00,99.97
3711.00,99.96
3710.00,99.93
3709.00,99.92
3708.00,99.92
3707.00,99.94
3706.00,99.97
3705.00,100.00
3704.00,100.02
3703.00,100.02
3702.00,100.03
3701.00,100.03
3700.00,100.04
3699.00,100.04
3698.00,100.05
3697.00,100.06
3696.00,100.07
3695.00,100.09
3694.00,100.09
3693.00,100.09
3692.00,100.08
3691.00,100.06
3690.00,100.04
3689.00,100.00
3688.00,99.98
3687.00,99.97
3686.00,99.97
3685.00,99.98
3684.00,100.00
3683.00,100.03
3682.00,100.07
3681.00,100.10
3680.00,100.11
3679.00,100.12
3678.00,100.11
3677.00,100.08
3676.00,100.04
3675.00,100.01
3674.00,100.00
3673.00,99.98
3672.00,99.96
3671.00,99.94
3670.00,99.96
3669.00,100.01
3668.00,100.05
3667.00,100.08
3666.00,100.11
3665.00,100.15
3664.00,100.20
3663.00,100.24
3662.00,100.28
3661.00,100.30
3660.00,100.31
3659.00,100.32
3658.00,100.31
3657.00,100.29
3656.00,100.28
3655.00,100.27
3654.00,100.27
3653.00,100.24
3652.00,100.21
3651.00,100.17
3650.00,100.15
3649.00,100.11
3648.00,100.05
3647.00,100.00
3646.00,99.98
3645.00,99.99
3644.00,100.02
3643.00,100.04
3642.00,100.06
3641.00,100.07
3640.00,100.07
3639.00,100.06
3638.00,100.05
3637.00,100.03
3636.00,100.01
3635.00,100.00
3634.00,99.98
3633.00,99.97
3632.00,99.94
3631.00,99.91
3630.00,99.85
3629.00,99.81
3628.00,99.78
3627.00,99.78
3626.00,99.78
3625.00,99.79
3624.00,99.81
3623.00,99.84
3622.00,99.86
3621.00,99.87
3620.00,99.85
3619.00,99.83
3618.00,99.82
3617.00,99.81
3616.00,99.79
3615.00,99.78
3614.00,99.76
3613.00,99.76
3612.00,99.77
3611.00,99.78
3610.00,99.79
3609.00,99.80
3608.00,99.81
3607.00,99.82
3606.00,99.84
3605.00,99.85
3604.00,99.87
3603.00,99.90
3602.00,99.92
3601.00,99.94
3600.00,99.95
3599.00,99.95
3598.00,99.95
3597.00,99.94
3596.00,99.92
3595.00,99.92
3594.00,99.92
3593.00,99.93
3592.00,99.94
3591.00,99.94
3590.00,99.94
3589.00,99.93
3588.00,99.91
3587.00,99.90
3586.00,99.89
3585.00,99.89
3584.00,99.90
3583.00,99.92
3582.00,99.94
3581.00,99.97
3580.00,100.00
3579.00,100.01
3578.00,100.02
3577.00,100.02
3576.00,100.01
3575.00,100.01
3574.00,100.00
3573.00,100.00
3572.00,100.00
3571.00,100.00
3570.00,100.00
3569.00,99.98
3568.00,99.96
3567.00,99.93
3566.00,99.90
3565.00,99.88
3564.00,99.87
3563.00,99.88
3562.00,99.89
3561.00,99.91
3560.00,99.93
3559.00,99.94
3558.00,99.94
3557.00,99.94
3556.00,99.95
3555.00,99.95
3554.00,99.95
3553.00,99.94
3552.00,99.94
3551.00,99.94
3550.00,99.93
3549.00,99.93
3548.00,99.93
3547.00,99.92
3546.00,99.91
3545.00,99.90
3544.00,99.89
3543.00,99.88
3542.00,99.88
3541.00,99.89
3540.00,99.89
3539.00,99.90
3538.00,99.91
3537.00,99.91
3536.00,99.90
3535.00,99.90
3534.00,99.90
3533.00,99.90
3532.00,99.89
3531.00,99.89
3530.00,99.89
3529.00,99.88
3528.00,99.88
3527.00,99.87
3526.00,99.86
3525.00,99.84
3524.00,99.83
3523.00,99.83
3522.00,99.83
3521.00,99.83
3520.00,99.84
3519.00,99.86
3518.00,99.86
3517.00,99.87
3516.00,99.88
3515.00,99.87
3514.00,99.87
3513.00,99.87
3512.00,99.86
3511.00,99.85
3510.00,99.84
3509.00,99.83
3508.00,99.82
3507.00,99.82
3506.00,99.82
3505.00,99.82
3504.00,99.82
3503.00,99.81
3502.00,99.80
3501.00,99.80
3500.00,99.80
3499.00,99.80
3498.00,99.80
3497.00,99.81
3496.00,99.81
3495.00,99.81
3494.00,99.80
3493.00,99.80
3492.00,99.80
3491.00,99.80
3490.00,99.80
3489.00,99.80
3488.00,99.80
3487.00,99.80
3486.00,99.79
3485.00,99.78
3484.00,99.78
3483.00,99.77
3482.00,99.77
3481.00,99.78
3480.00,99.77
3479.00,99.77
3478.00,99.77
3477.00,99.77
3476.00,99.77
3475.00,99.77
3474.00,99.77
3473.00,99.77
3472.00,99.77
3471.00,99.77
3470.00,99.76
3469.00,99.76
3468.00,99.76
3467.00,99.76
3466.00,99.76
3465.00,99.76
3464.00,99.75
3463.00,99.75
3462.00,99.74
3461.00,99.74
3460.00,99.74
3459.00,99.74
3458.00,99.73
3457.00,99.73
3456.00,99.73
3455.00,99.73
3454.00,99.72
3453.00,99.72
3452.00,99.72
3451.00,99.72
3450.00,99.72
3449.00,99.72
3448.00,99.72
3447.00,99.71
3446.00,99.71
3445.00,99.71
3444.00,99.71
3443.00,99.70
3442.00,99.70
3441.00,99.69
3440.00,99.69
3439.00,99.69
3438.00,99.70
3437.00,99.70
3436.00,99.71
3435.00,99.71
3434.00,99.71
3433.00,99.71
3432.00,99.70
3431.00,99.70
3430.00,99.70
3429.00,99.70
3428.00,99.69
3427.00,99.69
3426.00,99.69
3425.00,99.69
3424.00,99.69
3423.00,99.70
3422.00,99.70
3421.00,99.69
3420.00,99.69
3419.00,99.69
3418.00,99.69
3417.00,99.69
3416.00,99.69
3415.00,99.68
3414.00,99.68
3413.00,99.68
3412.00,99.68
3411.00,99.68
3410.00,99.68
3409.00,99.68
3408.00,99.68
3407.00,99.68
3406.00,99.68
3405.00,99.68
3404.00,99.68
3403.00,99.68
3402.00,99.68
3401.00,99.68
3400.00,99.68
3399.00,99.69
3398.00,99.69
3397.00,99.69
3396.00,99.69
3395.00,99.68
3394.00,99.68
3393.00,99.68
3392.00,99.67
3391.00,99.67
3390.00,99.67
3389.00,99.67
3388.00,99.67
3387.00,99.68
3386.00,99.68
3385.00,99.68
3384.00,99.68
3383.00,99.68
3382.00,99.68
3381.00,99.68
3380.00,99.68
3379.00,99.67
3378.00,99.67
3377.00,99.66
3376.00,99.66
3375.00,99.66
3374.00,99.67
3373.00,99.67
3372.00,99.67
3371.00,99.68
3370.00,99.68
3369.00,99.68
3368.00,99.68
3367.00,99.67
3366.00,99.67
3365.00,99.67
3364.00,99.67
3363.00,99.67
3362.00,99.67
3361.00,99.67
3360.00,99.68
3359.00,99.68
3358.00,99.68
3357.00,99.68
3356.00,99.68
3355.00,99.68
3354.00,99.68
3353.00,99.68
3352.00,99.68
3351.00,99.68
3350.00,99.69
3349.00,99.69
3348.00,99.69
3347.00,99.69
3346.00,99.69
3345.00,99.69
3344.00,99.68
3343.00,99.68
3342.00,99.68
3341.00,99.68
3340.00,99.68
3339.00,99.69
3338.00,99.69
3337.00,99.69
3336.00,99.69
3335.00,99.69
3334.00,99.70
3333.00,99.70
3332.00,99.70
3331.00,99.70
3330.00,99.70
3329.00,99.70
3328.00,99.71
3327.00,99.71
3326.00,99.71
3325.00,99.71
3324.00,99.71
3323.00,99.71
3322.00,99.72
3321.00,99.72
3320.00,99.72
3319.00,99.72
3318.00,99.72
3317.00,99.72
3316.00,99.72
3315.00,99.72
3314.00,99.72
3313.00,99.72
3312.00,99.72
3311.00,99.73
3310.00,99.73
3309.00,99.73
3308.00,99.73
3307.00,99.73
3306.00,99.73
3305.00,99.73
3304.00,99.74
3303.00,99.74
3302.00,99.74
3301.00,99.75
3300.00,99.75
3299.00,99.75
3298.00,99.75
3297.00,99.75
3296.00,99.75
3295.00,99.75
3294.00,99.75
3293.00,99.76
3292.00,99.76
3291.00,99.76
3290.00,99.76
3289.00,99.76
3288.00,99.75
3287.00,99.75
3286.00,99.75
3285.00,99.76
3284.00,99.76
3283.00,99.77
3282.00,99.77
3281.00,99.77
3280.00,99.78
3279.00,99.79
3278.00,99.79
3277.00,99.80
3276.00,99.80
3275.00,99.80
3274.00,99.79
3273.00,99.79
3272.00,99.79
3271.00,99.79
3270.00,99.79
3269.00,99.79
3268.00,99.80
3267.00,99.80
3266.00,99.81
3265.00,99.81
3264.00,99.81
3263.00,99.81
3262.00,99.81
3261.00,99.81
3260.00,99.81
3259.00,99.81
3258.00,99.81
3257.00,99.82
3256.00,99.82
3255.00,99.83
3254.00,99.83
3253.00,99.83
3252.00,99.83
3251.00,99.83
3250.00,99.83
3249.00,99.84
3248.00,99.85
3247.00,99.85
3246.00,99.85
3245.00,99.85
3244.00,99.85
3243.00,99.85
3242.00,99.85
3241.00,99.85
3240.00,99.85
3239.00,99.85
3238.00,99.85
3237.00,99.85
3236.00,99.86
3235.00,99.86
3234.00,99.87
3233.00,99.87
3232.00,99.87
3231.00,99.87
3230.00,99.87
3229.00,99.87
3228.00,99.88
3227.00,99.88
3226.00,99.88
3225.00,99.89
3224.00,99.89
3223.00,99.89
3222.00,99.89
3221.00,99.88
3220.00,99.88
3219.00,99.88
3218.00,99.89
3217.00,99.89
3216.00,99.90
3215.00,99.90
3214.00,99.90
3213.00,99.90
3212.00,99.90
3211.00,99.90
3210.00,99.90
3209.00,99.90
3208.00,99.90
3207.00,99.90
3206.00,99.90
3205.00,99.90
3204.00,99.90
3203.00,99.91
3202.00,99.91
3201.00,99.91
3200.00,99.92
3199.00,99.92
3198.00,99.93
3197.00,99.93
3196.00,99.93
3195.00,99.92
3194.00,99.92
3193.00,99.92
3192.00,99.93
3191.00,99.93
3190.00,99.93
3189.00,99.93
3188.00,99.93
3187.00,99.93
3186.00,99.93
3185.00,99.93
3184.00,99.93
3183.00,99.93
3182.00,99.94
3181.00,99.94
3180.00,99.94
3179.00,99.94
3178.00,99.94
3177.00,99.94
3176.00,99.93
3175.00,99.94
3174.00,99.94
3173.00,99.94
3172.00,99.95
3171.00,99.95
3170.00,99.96
3169.00,99.96
3168.00,99.96
3167.00,99.96
3166.00,99.96
3165.00,99.96
3164.00,99.96
3163.00,99.96
3162.00,99.96
3161.00,99.97
3160.00,99.97
3159.00,99.97
3158.00,99.96
3157.00,99.96
3156.00,99.96
3155.00,99.96
3154.00,99.96
3153.00,99.96
3152.00,99.96
3151.00,99.96
3150.00,99.97
3149.00,99.97
3148.00,99.97
3147.00,99.97
3146.00,99.97
3145.00,99.97
3144.00,99.97
3143.00,99.97
3142.00,99.97
3141.00,99.97
3140.00,99.97
3139.00,99.97
3138.00,99.97
3137.00,99.98
3136.00,99.98
3135.00,99.98
3134.00,99.98
3133.00,99.98
3132.00,99.98
3131.00,99.98
3130.00,99.98
3129.00,99.98
3128.00,99.98
3127.00,99.98
3126.00,99.98
3125.00,99.98
3124.00,99.98
3123.00,99.98
3122.00,99.98
3121.00,99.98
3120.00,99.98
3119.00,99.98
3118.00,99.99
3117.00,99.99
3116.00,99.99
3115.00,99.99
3114.00,99.99
3113.00,99.99
3112.00,99.99
3111.00,100.00
3110.00,100.00
3109.00,100.00
3108.00,100.00
3107.00,99.99
3106.00,99.99
3105.00,99.98
3104.00,99.98
3103.00,99.97
3102.00,99.96
3101.00,99.95
3100.00,99.94
3099.00,99.94
3098.00,99.94
3097.00,99.94
3096.00,99.94
3095.00,99.95
3094.00,99.95
3093.00,99.95
3092.00,99.95
3091.00,99.95
3090.00,99.95
3089.00,99.95
3088.00,99.95
3087.00,99.95
3086.00,99.95
3085.00,99.95
3084.00,99.94
3083.00,99.93
3082.00,99.91
3081.00,99.89
3080.00,99.86
3079.00,99.82
3078.00,99.80
3077.00,99.78
3076.00,99.78
3075.00,99.80
3074.00,99.82
3073.00,99.85
3072.00,99.87
3071.00,99.90
3070.00,99.91
3069.00,99.92
3068.00,99.93
3067.00,99.93
3066.00,99.92
3065.00,99.91
3064.00,99.89
3063.00,99.86
3062.00,99.82
3061.00,99.77
3060.00,99.73
3059.00,99.68
3058.00,99.65
3057.00,99.62
3056.00,99.61
3055.00,99.60
3054.00,99.60
3053.00,99.60
3052.00,99.61
3051.00,99.62
3050.00,99.63
3049.00,99.64
3048.00,99.64
3047.00,99.64
3046.00,99.63
3045.00,99.60
3044.00,99.56
3043.00,99.51
3042.00,99.45
3041.00,99.39
3040.00,99.33
3039.00,99.28
3038.00,99.24
3037.00,99.20
3036.00,99.19
3035.00,99.18
3034.00,99.18
3033.00,99.19
3032.00,99.19
3031.00,99.17
3030.00,99.13
3029.00,99.07
3028.00,98.99
3027.00,98.92
3026.00,98.87
3025.00,98.85
3024.00,98.85
3023.00,98.87
3022.00,98.92
3021.00,98.97
3020.00,99.04
3019.00,99.11
3018.00,99.17
3017.00,99.23
3016.00,99.27
3015.00,99.31
3014.00,99.34
3013.00,99.37
3012.00,99.39
3011.00,99.40
3010.00,99.41
3009.00,99.41
3008.00,99.42
3007.00,99.43
3006.00,99.43
3005.00,99.44
3004.00,99.45
3003.00,99.45
3002.00,99.45
3001.00,99.45
3000.00,99.45
2999.00,99.44
2998.00,99.43
2997.00,99.43
2996.00,99.42
2995.00,99.41
2994.00,99.40
2993.00,99.39
2992.00,99.37
2991.00,99.36
2990.00,99.34
2989.00,99.33
2988.00,99.33
2987.00,99.34
2986.00,99.35
2985.00,99.37
2984.00,99.38
2983.00,99.39
2982.00,99.40
2981.00,99.41
2980.00,99.41
2979.00,99.41
2978.00,99.41
2977.00,99.41
2976.00,99.41
2975.00,99.42
2974.00,99.42
2973.00,99.43
2972.00,99.43
2971.00,99.43
2970.00,99.43
2969.00,99.42
2968.00,99.42
2967.00,99.41
2966.00,99.41
2965.00,99.41
2964.00,99.40
2963.00,99.40
2962.00,99.39
2961.00,99.38
2960.00,99.37
2959.00,99.36
2958.00,99.35
2957.00,99.33
2956.00,99.31
2955.00,99.28
2954.00,99.25
2953.00,99.23
2952.00,99.20
2951.00,99.18
2950.00,99.16
2949.00,99.16
2948.00,99.16
2947.00,99.16
2946.00,99.18
2945.00,99.19
2944.00,99.21
2943.00,99.22
2942.00,99.23
2941.00,99.24
2940.00,99.24
2939.00,99.24
2938.00,99.23
2937.00,99.23
2936.00,99.22
2935.00,99.20
2934.00,99.19
2933.00,99.17
2932.00,99.15
2931.00,99.13
2930.00,99.11
2929.00,99.08
2928.00,99.05
2927.00,99.02
2926.00,98.99
2925.00,98.96
2924.00,98.92
2923.00,98.90
2922.00,98.88
2921.00,98.86
2920.00,98.85
2919.00,98.86
2918.00,98.86
2917.00,98.88
2916.00,98.90
2915.00,98.92
2914.00,98.94
2913.00,98.96
2912.00,98.99
2911.00,99.01
2910.00,99.04
2909.00,99.07
2908.00,99.09
2907.00,99.11
2906.00,99.13
2905.00,99.15
2904.00,99.16
2903.00,99.18
2902.00,99.19
2901.00,99.20
2900.00,99.21
2899.00,99.22
2898.00,99.23
2897.00,99.24
2896.00,99.25
2895.00,99.26
2894.00,99.27
2893.00,99.28
2892.00,99.28
2891.00,99.29
2890.00,99.30
2889.00,99.30
2888.00,99.31
2887.00,99.31
2886.00,99.32
2885.00,99.32
2884.00,99.33
2883.00,99.33
2882.00,99.33
2881.00,99.33
2880.00,99.33
2879.00,99.32
2878.00,99.32
2877.00,99.32
2876.00,99.31
2875.00,99.31
2874.00,99.30
2873.00,99.30
2872.00,99.29
2871.00,99.29
2870.00,99.29
2869.00,99.29
2868.00,99.29
2867.00,99.29
2866.00,99.29
2865.00,99.29
2864.00,99.28
2863.00,99.27
2862.00,99.26
2861.00,99.25
2860.00,99.23
2859.00,99.22
2858.00,99.21
2857.00,99.20
2856.00,99.19
2855.00,99.18
2854.00,99.17
2853.00,99.17
2852.00,99.17
2851.00,99.17
2850.00,99.18
2849.00,99.19
2848.00,99.20
2847.00,99.22
2846.00,99.24
2845.00,99.27
2844.00,99.28
2843.00,99.30
2842.00,99.32
2841.00,99.34
2840.00,99.35
2839.00,99.36
2838.00,99.37
2837.00,99.38
2836.00,99.40
2835.00,99.41
2834.00,99.42
2833.00,99.43
2832.00,99.44
2831.00,99.44
2830.00,99.45
2829.00,99.46
2828.00,99.46
2827.00,99.47
2826.00,99.47
2825.00,99.48
2824.00,99.48
2823.00,99.48
2822.00,99.49
2821.00,99.49
2820.00,99.49
2819.00,99.49
2818.00,99.50
2817.00,99.50
2816.00,99.50
2815.00,99.50
2814.00,99.51
2813.00,99.51
2812.00,99.51
2811.00,99.52
2810.00,99.52
2809.00,99.52
2808.00,99.52
2807.00,99.51
2806.00,99.51
2805.00,99.52
2804.00,99.52
2803.00,99.53
2802.00,99.53
2801.00,99.54
2800.00,99.54
2799.00,99.54
2798.00,99.54
2797.00,99.54
2796.00,99.55
2795.00,99.55
2794.00,99.55
2793.00,99.56
2792.00,99.56
2791.00,99.56
2790.00,99.55
2789.00,99.55
2788.00,99.56
2787.00,99.56
2786.00,99.56
2785.00,99.56
2784.00,99.56
2783.00,99.56
2782.00,99.56
2781.00,99.56
2780.00,99.56
2779.00,99.56
2778.00,99.56
2777.00,99.56
2776.00,99.56
2775.00,99.56
2774.00,99.56
2773.00,99.57
2772.00,99.57
2771.00,99.57
2770.00,99.57
2769.00,99.58
2768.00,99.58
2767.00,99.58
2766.00,99.58
2765.00,99.58
2764.00,99.58
2763.00,99.58
2762.00,99.58
2761.00,99.59
2760.00,99.59
2759.00,99.59
2758.00,99.59
2757.00,99.59
2756.00,99.59
2755.00,99.59
2754.00,99.59
2753.00,99.59
2752.00,99.59
2751.00,99.59
2750.00,99.58
2749.00,99.58
2748.00,99.58
2747.00,99.57
2746.00,99.57
2745.00,99.56
2744.00,99.56
2743.00,99.56
2742.00,99.56
2741.00,99.56
2740.00,99.57
2739.00,99.57
2738.00,99.57
2737.00,99.57
2736.00,99.57
2735.00,99.57
2734.00,99.57
2733.00,99.57
2732.00,99.57
2731.00,99.57
2730.00,99.57
2729.00,99.57
2728.00,99.57
2727.00,99.57
2726.00,99.57
2725.00,99.57
2724.00,99.57
2723.00,99.57
2722.00,99.57
2721.00,99.57
2720.00,99.57
2719.00,99.57
2718.00,99.58
2717.00,99.58
2716.00,99.58
2715.00,99.58
2714.00,99.58
2713.00,99.58
2712.00,99.58
2711.00,99.58
2710.00,99.58
2709.00,99.58
2708.00,99.58
2707.00,99.58
2706.00,99.59
2705.00,99.59
2704.00,99.59
2703.00,99.59
2702.00,99.59
2701.00,99.59
2700.00,99.60
2699.00,99.60
2698.00,99.60
2697.00,99.61
2696.00,99.61
2695.00,99.61
2694.00,99.60
2693.00,99.60
2692.00,99.61
2691.00,99.61
2690.00,99.61
2689.00,99.61
2688.00,99.61
2687.00,99.61
2686.00,99.61
2685.00,99.61
2684.00,99.61
2683.00,99.61
2682.00,99.61
2681.00,99.61
2680.00,99.61
2679.00,99.61
2678.00,99.61
2677.00,99.61
2676.00,99.61
2675.00,99.61
2674.00,99.61
2673.00,99.61
2672.00,99.61
2671.00,99.61
2670.00,99.60
2669.00,99.60
2668.00,99.60
2667.00,99.60
2666.00,99.59
2665.00,99.59
2664.00,99.59
2663.00,99.59
2662.00,99.59
2661.00,99.59
2660.00,99.60
2659.00,99.60
2658.00,99.61
2657.00,99.61
2656.00,99.62
2655.00,99.63
2654.00,99.64
2653.00,99.64
2652.00,99.65
2651.00,99.66
2650.00,99.67
2649.00,99.68
2648.00,99.69
2647.00,99.69
2646.00,99.70
2645.00,99.71
2644.00,99.72
2643.00,99.73
2642.00,99.74
2641.00,99.74
2640.00,99.75
2639.00,99.76
2638.00,99.77
2637.00,99.77
2636.00,99.78
2635.00,99.79
2634.00,99.80
2633.00,99.81
2632.00,99.81
2631.00,99.82
2630.00,99.82
2629.00,99.83
2628.00,99.83
2627.00,99.84
2626.00,99.84
2625.00,99.85
2624.00,99.86
2623.00,99.86
2622.00,99.87
2621.00,99.87
2620.00,99.88
2619.00,99.89
2618.00,99.89
2617.00,99.90
2616.00,99.90
2615.00,99.91
2614.00,99.91
2613.00,99.92
2612.00,99.92
2611.00,99.93
2610.00,99.93
2609.00,99.93
2608.00,99.93
2607.00,99.93
2606.00,99.93
2605.00,99.94
2604.00,99.94
2603.00,99.95
2602.00,99.95
2601.00,99.96
2600.00,99.96
2599.00,99.97
2598.00,99.97
2597.00,99.97
2596.00,99.97
2595.00,99.96
2594.00,99.96
2593.00,99.96
2592.00,99.97
2591.00,99.97
2590.00,99.97
2589.00,99.97
2588.00,99.97
2587.00,99.97
2586.00,99.97
2585.00,99.97
2584.00,99.97
2583.00,99.97
2582.00,99.97
2581.00,99.97
2580.00,99.98
2579.00,99.98
2578.00,99.99
2577.00,99.99
2576.00,100.00
2575.00,100.00
2574.00,100.00
2573.00,100.00
2572.00,100.00
2571.00,100.00
2570.00,100.00
2569.00,100.00
2568.00,100.00
2567.00,100.00
2566.00,100.00
2565.00,100.01
2564.00,100.01
2563.00,100.01
2562.00,100.01
2561.00,100.00
2560.00,100.01
2559.00,100.01
2558.00,100.01
2557.00,100.02
2556.00,100.02
2555.00,100.02
2554.00,100.02
2553.00,100.02
2552.00,100.01
2551.00,100.01
2550.00,100.01
2549.00,100.01
2548.00,100.02
2547.00,100.02
2546.00,100.02
2545.00,100.02
2544.00,100.02
2543.00,100.02
2542.00,100.03
2541.00,100.03
2540.00,100.03
2539.00,100.03
2538.00,100.03
2537.00,100.02
2536.00,100.02
2535.00,100.02
2534.00,100.03
2533.00,100.03
2532.00,100.02
2531.00,100.02
2530.00,100.02
2529.00,100.02
2528.00,100.03
2527.00,100.02
2526.00,100.02
2525.00,100.02
2524.00,100.02
2523.00,100.02
2522.00,100.02
2521.00,100.02
2520.00,100.02
2519.00,100.02
2518.00,100.02
2517.00,100.02
2516.00,100.01
2515.00,100.01
2514.00,100.01
2513.00,100.01
2512.00,100.01
2511.00,100.02
2510.00,100.02
2509.00,100.02
2508.00,100.02
2507.00,100.02
2506.00,100.02
2505.00,100.01
2504.00,100.01
2503.00,100.00
2502.00,100.00
2501.00,100.00
2500.00,100.01
2499.00,100.01
2498.00,100.00
2497.00,100.00
2496.00,100.01
2495.00,100.01
2494.00,100.01
2493.00,100.00
2492.00,100.00
2491.00,100.00
2490.00,99.99
2489.00,99.99
2488.00,99.99
2487.00,99.99
2486.00,99.99
2485.00,99.99
2484.00,99.99
2483.00,99.99
2482.00,100.00
2481.00,100.00
2480.00,99.99
2479.00,99.99
2478.00,99.98
2477.00,99.98
2476.00,99.97
2475.00,99.96
2474.00,99.96
2473.00,99.95
2472.00,99.95
2471.00,99.95
2470.00,99.95
2469.00,99.95
2468.00,99.94
2467.00,99.94
2466.00,99.94
2465.00,99.95
2464.00,99.95
2463.00,99.94
2462.00,99.94
2461.00,99.94
2460.00,99.94
2459.00,99.93
2458.00,99.93
2457.00,99.93
2456.00,99.93
2455.00,99.92
2454.00,99.92
2453.00,99.92
2452.00,99.92
2451.00,99.92
2450.00,99.92
2449.00,99.92
2448.00,99.93
2447.00,99.93
2446.00,99.93
2445.00,99.92
2444.00,99.92
2443.00,99.92
2442.00,99.92
2441.00,99.92
2440.00,99.92
2439.00,99.92
2438.00,99.92
2437.00,99.92
2436.00,99.92
2435.00,99.91
2434.00,99.91
2433.00,99.91
2432.00,99.91
2431.00,99.90
2430.00,99.90
2429.00,99.90
2428.00,99.90
2427.00,99.90
2426.00,99.90
2425.00,99.89
2424.00,99.89
2423.00,99.89
2422.00,99.89
2421.00,99.89
2420.00,99.89
2419.00,99.89
2418.00,99.89
2417.00,99.89
2416.00,99.88
2415.00,99.88
2414.00,99.87
2413.00,99.86
2412.00,99.86
2411.00,99.85
2410.00,99.85
2409.00,99.84
2408.00,99.84
2407.00,99.85
2406.00,99.85
2405.00,99.85
2404.00,99.85
2403.00,99.84
2402.00,99.84
2401.00,99.84
2400.00,99.83
2399.00,99.83
2398.00,99.82
2397.00,99.82
2396.00,99.81
2395.00,99.80
2394.00,99.79
2393.00,99.79
2392.00,99.79
2391.00,99.79
2390.00,99.79
2389.00,99.79
2388.00,99.79
2387.00,99.78
2386.00,99.78
2385.00,99.78
2384.00,99.78
2383.00,99.79
2382.00,99.78
2381.00,99.78
2380.00,99.77
2379.00,99.77
2378.00,99.77
2377.00,99.76
2376.00,99.76
2375.00,99.76
2374.00,99.76
2373.00,99.76
2372.00,99.76
2371.00,99.77
2370.00,99.77
2369.00,99.77
2368.00,99.76
2367.00,99.76
2366.00,99.75
2365.00,99.74
2364.00,99.72
2363.00,99.70
2362.00,99.67
2361.00,99.66
2360.00,99.63
2359.00,99.64
2358.00,99.52
2357.00,99.43
2356.00,99.45
2355.00,99.43
2354.00,99.43
2353.00,99.42
2352.00,99.41
2351.00,99.41
2350.00,99.43
2349.00,99.46
2348.00,99.52
2347.00,99.54
2346.00,99.62
2345.00,99.68
2344.00,99.64
2343.00,99.60
2342.00,99.57
2341.00,99.54
2340.00,99.52
2339.00,99.50
2338.00,99.50
2337.00,99.50
2336.00,99.49
2335.00,99.49
2334.00,99.48
2333.00,99.48
2332.00,99.48
2331.00,99.48
2330.00,99.48
2329.00,99.47
2328.00,99.44
2327.00,99.41
2326.00,99.38
2325.00,99.36
2324.00,99.36
2323.00,99.37
2322.00,99.38
2321.00,99.40
2320.00,99.42
2319.00,99.43
2318.00,99.45
2317.00,99.46
2316.00,99.47
2315.00,99.49
2314.00,99.50
2313.00,99.51
2312.00,99.53
2311.00,99.54
2310.00,99.55
2309.00,99.56
2308.00,99.57
2307.00,99.57
2306.00,99.57
2305.00,99.57
2304.00,99.57
2303.00,99.58
2302.00,99.59
2301.00,99.59
2300.00,99.60
2299.00,99.60
2298.00,99.59
2297.00,99.59
2296.00,99.59
2295.00,99.59
2294.00,99.58
2293.00,99.58
2292.00,99.57
2291.00,99.57
2290.00,99.56
2289.00,99.55
2288.00,99.54
2287.00,99.54
2286.00,99.53
2285.00,99.53
2284.00,99.54
2283.00,99.55
2282.00,99.56
2281.00,99.57
2280.00,99.58
2279.00,99.59
2278.00,99.59
2277.00,99.59
2276.00,99.60
2275.00,99.60
2274.00,99.60
2273.00,99.60
2272.00,99.61
2271.00,99.61
2270.00,99.62
2269.00,99.62
2268.00,99.62
2267.00,99.63
2266.00,99.63
2265.00,99.63
2264.00,99.63
2263.00,99.63
2262.00,99.62
2261.00,99.61
2260.00,99.61
2259.00,99.61
2258.00,99.61
2257.00,99.62
2256.00,99.63
2255.00,99.63
2254.00,99.64
2253.00,99.64
2252.00,99.64
2251.00,99.64
2250.00,99.64
2249.00,99.63
2248.00,99.62
2247.00,99.62
2246.00,99.62
2245.00,99.62
2244.00,99.62
2243.00,99.61
2242.00,99.61
2241.00,99.62
2240.00,99.63
2239.00,99.64
2238.00,99.64
2237.00,99.64
2236.00,99.63
2235.00,99.63
2234.00,99.63
2233.00,99.63
2232.00,99.62
2231.00,99.62
2230.00,99.62
2229.00,99.63
2228.00,99.64
2227.00,99.65
2226.00,99.65
2225.00,99.65
2224.00,99.65
2223.00,99.65
2222.00,99.64
2221.00,99.63
2220.00,99.62
2219.00,99.62
2218.00,99.62
2217.00,99.62
2216.00,99.62
2215.00,99.62
2214.00,99.62
2213.00,99.62
2212.00,99.62
2211.00,99.64
2210.00,99.65
2209.00,99.67
2208.00,99.67
2207.00,99.66
2206.00,99.65
2205.00,99.64
2204.00,99.64
2203.00,99.63
2202.00,99.63
2201.00,99.63
2200.00,99.62
2199.00,99.62
2198.00,99.61
2197.00,99.61
2196.00,99.60
2195.00,99.60
2194.00,99.61
2193.00,99.62
2192.00,99.63
2191.00,99.62
2190.00,99.60
2189.00,99.58
2188.00,99.57
2187.00,99.58
2186.00,99.61
2185.00,99.64
2184.00,99.67
2183.00,99.69
2182.00,99.69
2181.00,99.70
2180.00,99.70
2179.00,99.71
2178.00,99.72
2177.00,99.72
2176.00,99.72
2175.00,99.72
2174.00,99.71
2173.00,99.69
2172.00,99.68
2171.00,99.67
2170.00,99.66
2169.00,99.66
2168.00,99.65
2167.00,99.65
2166.00,99.65
2165.00,99.64
2164.00,99.63
2163.00,99.62
2162.00,99.63
2161.00,99.68
2160.00,99.77
2159.00,99.88
2158.00,99.98
2157.00,100.01
2156.00,100.00
2155.00,99.97
2154.00,99.93
2153.00,99.90
2152.00,99.88
2151.00,99.86
2150.00,99.86
2149.00,99.86
2148.00,99.87
2147.00,99.87
2146.00,99.86
2145.00,99.86
2144.00,99.85
2143.00,99.84
2142.00,99.83
2141.00,99.81
2140.00,99.79
2139.00,99.79
2138.00,99.79
2137.00,99.79
2136.00,99.80
2135.00,99.81
2134.00,99.83
2133.00,99.83
2132.00,99.82
2131.00,99.79
2130.00,99.77
2129.00,99.74
2128.00,99.73
2127.00,99.71
2126.00,99.70
2125.00,99.68
2124.00,99.67
2123.00,99.66
2122.00,99.66
2121.00,99.66
2120.00,99.66
2119.00,99.66
2118.00,99.65
2117.00,99.64
2116.00,99.63
2115.00,99.62
2114.00,99.61
2113.00,99.61
2112.00,99.61
2111.00,99.61
2110.00,99.62
2109.00,99.62
2108.00,99.62
2107.00,99.61
2106.00,99.61
2105.00,99.60
2104.00,99.60
2103.00,99.60
2102.00,99.60
2101.00,99.61
2100.00,99.62
2099.00,99.63
2098.00,99.64
2097.00,99.65
2096.00,99.66
2095.00,99.67
2094.00,99.66
2093.00,99.65
2092.00,99.64
2091.00,99.63
2090.00,99.64
2089.00,99.64
2088.00,99.64
2087.00,99.64
2086.00,99.63
2085.00,99.63
2084.00,99.63
2083.00,99.62
2082.00,99.61
2081.00,99.61
2080.00,99.61
2079.00,99.62
2078.00,99.63
2077.00,99.63
2076.00,99.64
2075.00,99.65
2074.00,99.66
2073.00,99.66
2072.00,99.65
2071.00,99.65
2070.00,99.65
2069.00,99.65
2068.00,99.66
2067.00,99.67
2066.00,99.68
2065.00,99.69
2064.00,99.70
2063.00,99.70
2062.00,99.70
2061.00,99.69
2060.00,99.69
2059.00,99.69
2058.00,99.68
2057.00,99.68
2056.00,99.68
2055.00,99.70
2054.00,99.70
2053.00,99.67
2052.00,99.63
2051.00,99.60
2050.00,99.61
2049.00,99.66
2048.00,99.71
2047.00,99.74
2046.00,99.75
2045.00,99.75
2044.00,99.76
2043.00,99.76
2042.00,99.77
2041.00,99.77
2040.00,99.77
2039.00,99.78
2038.00,99.80
2037.00,99.81
2036.00,99.82
2035.00,99.83
2034.00,99.84
2033.00,99.85
2032.00,99.87
2031.00,99.88
2030.00,99.90
2029.00,99.93
2028.00,99.95
2027.00,99.97
2026.00,99.97
2025.00,99.96
2024.00,99.93
2023.00,99.90
2022.00,99.89
2021.00,99.89
2020.00,99.90
2019.00,99.92
2018.00,99.94
2017.00,99.95
2016.00,99.95
2015.00,99.93
2014.00,99.92
2013.00,99.90
2012.00,99.89
2011.00,99.88
2010.00,99.87
2009.00,99.87
2008.00,99.89
2007.00,99.93
2006.00,99.95
2005.00,99.96
2004.00,99.94
2003.00,99.91
2002.00,99.88
2001.00,99.87
2000.00,99.88
1999.00,99.88
1998.00,99.88
1997.00,99.87
1996.00,99.85
1995.00,99.85
1994.00,99.86
1993.00,99.87
1992.00,99.87
1991.00,99.87
1990.00,99.88
1989.00,99.90
1988.00,99.90
1987.00,99.89
1986.00,99.87
1985.00,99.86
1984.00,99.85
1983.00,99.84
1982.00,99.81
1981.00,99.78
1980.00,99.76
1979.00,99.78
1978.00,99.83
1977.00,99.88
1976.00,99.91
1975.00,99.93
1974.00,99.93
1973.00,99.93
1972.00,99.92
1971.00,99.92
1970.00,99.92
1969.00,99.92
1968.00,99.92
1967.00,99.92
1966.00,99.92
1965.00,99.90
1964.00,99.89
1963.00,99.88
1962.00,99.88
1961.00,99.89
1960.00,99.91
1959.00,99.93
1958.00,99.94
1957.00,99.92
1956.00,99.90
1955.00,99.88
1954.00,99.87
1953.00,99.86
1952.00,99.85
1951.00,99.85
1950.00,99.84
1949.00,99.84
1948.00,99.85
1947.00,99.87
1946.00,99.90
1945.00,99.92
1944.00,99.94
1943.00,99.95
1942.00,99.97
1941.00,99.97
1940.00,99.96
1939.00,99.94
1938.00,99.92
1937.00,99.91
1936.00,99.90
1935.00,99.90
1934.00,99.90
1933.00,99.90
1932.00,99.90
1931.00,99.90
1930.00,99.90
1929.00,99.91
1928.00,99.92
1927.00,99.93
1926.00,99.94
1925.00,99.94
1924.00,99.95
1923.00,99.96
1922.00,99.97
1921.00,99.98
1920.00,99.99
1919.00,100.00
1918.00,100.01
1917.00,100.00
1916.00,99.99
1915.00,99.97
1914.00,99.95
1913.00,99.93
1912.00,99.92
1911.00,99.91
1910.00,99.91
1909.00,99.90
1908.00,99.90
1907.00,99.90
1906.00,99.89
1905.00,99.89
1904.00,99.89
1903.00,99.89
1902.00,99.89
1901.00,99.88
1900.00,99.88
1899.00,99.87
1898.00,99.87
1897.00,99.86
1896.00,99.84
1895.00,99.83
1894.00,99.82
1893.00,99.82
1892.00,99.82
1891.00,99.82
1890.00,99.82
1889.00,99.81
1888.00,99.81
1887.00,99.81
1886.00,99.80
1885.00,99.80
1884.00,99.79
1883.00,99.78
1882.00,99.77
1881.00,99.76
1880.00,99.75
1879.00,99.74
1878.00,99.74
1877.00,99.74
1876.00,99.74
1875.00,99.74
1874.00,99.75
1873.00,99.74
1872.00,99.74
1871.00,99.74
1870.00,99.74
1869.00,99.74
1868.00,99.73
1867.00,99.73
1866.00,99.73
1865.00,99.73
1864.00,99.72
1863.00,99.73
1862.00,99.73
1861.00,99.74
1860.00,99.75
1859.00,99.75
1858.00,99.76
1857.00,99.76
1856.00,99.76
1855.00,99.76
1854.00,99.77
1853.00,99.77
1852.00,99.78
1851.00,99.78
1850.00,99.79
1849.00,99.79
1848.00,99.79
1847.00,99.79
1846.00,99.78
1845.00,99.78
1844.00,99.77
1843.00,99.77
1842.00,99.76
1841.00,99.76
1840.00,99.76
1839.00,99.76
1838.00,99.77
1837.00,99.77
1836.00,99.77
1835.00,99.77
1834.00,99.77
1833.00,99.77
1832.00,99.78
1831.00,99.78
1830.00,99.78
1829.00,99.77
1828.00,99.76
1827.00,99.75
1826.00,99.73
1825.00,99.71
1824.00,99.70
1823.00,99.69
1822.00,99.69
1821.00,99.69
1820.00,99.69
1819.00,99.69
1818.00,99.70
1817.00,99.71
1816.00,99.71
1815.00,99.70
1814.00,99.69
1813.00,99.68
1812.00,99.66
1811.00,99.64
1810.00,99.62
1809.00,99.60
1808.00,99.58
1807.00,99.57
1806.00,99.56
1805.00,99.55
1804.00,99.54
1803.00,99.54
1802.00,99.54
1801.00,99.54
1800.00,99.54
1799.00,99.54
1798.00,99.55
1797.00,99.55
1796.00,99.54
1795.00,99.54
1794.00,99.53
1793.00,99.52
1792.00,99.51
1791.00,99.50
1790.00,99.50
1789.00,99.51
1788.00,99.52
1787.00,99.53
1786.00,99.54
1785.00,99.55
1784.00,99.57
1783.00,99.57
1782.00,99.58
1781.00,99.59
1780.00,99.59
1779.00,99.59
1778.00,99.59
1777.00,99.59
1776.00,99.60
1775.00,99.60
1774.00,99.60
1773.00,99.60
1772.00,99.59
1771.00,99.59
1770.00,99.58
1769.00,99.57
1768.00,99.57
1767.00,99.56
1766.00,99.56
1765.00,99.56
1764.00,99.55
1763.00,99.54
1762.00,99.53
1761.00,99.53
1760.00,99.52
1759.00,99.51
1758.00,99.49
1757.00,99.48
1756.00,99.47
1755.00,99.45
1754.00,99.44
1753.00,99.42
1752.00,99.41
1751.00,99.40
1750.00,99.39
1749.00,99.37
1748.00,99.35
1747.00,99.32
1746.00,99.30
1745.00,99.27
1744.00,99.24
1743.00,99.21
1742.00,99.18
1741.00,99.15
1740.00,99.11
1739.00,99.09
1738.00,99.06
1737.00,99.05
1736.00,99.03
1735.00,99.02
1734.00,98.99
1733.00,98.97
1732.00,98.94
1731.00,98.92
1730.00,98.91
1729.00,98.89
1728.00,98.89
1727.00,98.88
1726.00,98.88
1725.00,98.88
1724.00,98.88
1723.00,98.87
1722.00,98.87
1721.00,98.87
1720.00,98.87
1719.00,98.87
1718.00,98.87
1717.00,98.86
1716.00,98.83
1715.00,98.82
1714.00,98.81
1713.00,98.81
1712.00,98.81
1711.00,98.81
1710.00,98.81
1709.00,98.81
1708.00,98.81
1707.00,98.82
1706.00,98.84
1705.00,98.85
1704.00,98.86
1703.00,98.87
1702.00,98.88
1701.00,98.89
1700.00,98.89
1699.00,98.90
1698.00,98.90
1697.00,98.90
1696.00,98.89
1695.00,98.90
1694.00,98.91
1693.00,98.91
1692.00,98.91
1691.00,98.91
1690.00,98.92
1689.00,98.92
1688.00,98.92
1687.00,98.92
1686.00,98.92
1685.00,98.93
1684.00,98.93
1683.00,98.91
1682.00,98.90
1681.00,98.90
1680.00,98.90
1679.00,98.91
1678.00,98.91
1677.00,98.92
1676.00,98.92
1675.00,98.92
1674.00,98.93
1673.00,98.93
1672.00,98.94
1671.00,98.94
1670.00,98.94
1669.00,98.94
1668.00,98.94
1667.00,98.94
1666.00,98.94
1665.00,98.94
1664.00,98.94
1663.00,98.94
1662.00,98.94
1661.00,98.94
1660.00,98.96
1659.00,98.97
1658.00,98.99
1657.00,99.01
1656.00,99.02
1655.00,99.03
1654.00,99.05
1653.00,99.06
1652.00,99.08
1651.00,99.10
1650.00,99.11
1649.00,99.12
1648.00,99.13
1647.00,99.14
1646.00,99.14
1645.00,99.14
1644.00,99.14
1643.00,99.15
1642.00,99.16
1641.00,99.16
1640.00,99.17
1639.00,99.18
1638.00,99.18
1637.00,99.17
1636.00,99.17
1635.00,99.17
1634.00,99.17
1633.00,99.17
1632.00,99.18
1631.00,99.19
1630.00,99.20
1629.00,99.20
1628.00,99.21
1627.00,99.22
1626.00,99.22
1625.00,99.23
1624.00,99.24
1623.00,99.25
1622.00,99.26
1621.00,99.27
1620.00,99.27
1619.00,99.27
1618.00,99.27
1617.00,99.28
1616.00,99.28
1615.00,99.29
1614.00,99.29
1613.00,99.27
1612.00,99.25
1611.00,99.21
1610.00,99.15
1609.00,99.07
1608.00,98.98
1607.00,98.89
1606.00,98.80
1605.00,98.73
1604.00,98.68
1603.00,98.65
1602.00,98.64
1601.00,98.64
1600.00,98.65
1599.00,98.66
1598.00,98.68
1597.00,98.69
1596.00,98.71
1595.00,98.71
1594.00,98.70
1593.00,98.67
1592.00,98.62
1591.00,98.55
1590.00,98.45
1589.00,98.34
1588.00,98.26
1587.00,98.21
1586.00,98.22
1585.00,98.28
1584.00,98.37
1583.00,98.48
1582.00,98.58
1581.00,98.67
1580.00,98.75
1579.00,98.82
1578.00,98.86
1577.00,98.91
1576.00,98.94
1575.00,98.94
1574.00,98.93
1573.00,98.91
1572.00,98.88
1571.00,98.86
1570.00,98.87
1569.00,98.91
1568.00,98.95
1567.00,99.00
1566.00,99.03
1565.00,99.07
1564.00,99.10
1563.00,99.12
1562.00,99.12
1561.00,99.13
1560.00,99.15
1559.00,99.18
1558.00,99.18
1557.00,99.19
1556.00,99.20
1555.00,99.21
1554.00,99.22
1553.00,99.24
1552.00,99.25
1551.00,99.26
1550.00,99.27
1549.00,99.28
1548.00,99.28
1547.00,99.29
1546.00,99.29
1545.00,99.30
1544.00,99.31
1543.00,99.31
1542.00,99.31
1541.00,99.31
1540.00,99.32
1539.00,99.32
1538.00,99.33
1537.00,99.33
1536.00,99.33
1535.00,99.33
1534.00,99.34
1533.00,99.35
1532.00,99.36
1531.00,99.36
1530.00,99.37
1529.00,99.38
1528.00,99.38
1527.00,99.39
1526.00,99.39
1525.00,99.40
1524.00,99.41
1523.00,99.41
1522.00,99.41
1521.00,99.41
1520.00,99.42
1519.00,99.42
1518.00,99.42
1517.00,99.43
1516.00,99.44
1515.00,99.45
1514.00,99.45
1513.00,99.46
1512.00,99.48
1511.00,99.49
1510.00,99.50
1509.00,99.50
1508.00,99.50
1507.00,99.51
1506.00,99.52
1505.00,99.52
1504.00,99.53
1503.00,99.53
1502.00,99.52
1501.00,99.51
1500.00,99.50
1499.00,99.48
1498.00,99.44
1497.00,99.34
1496.00,99.13
1495.00,98.80
1494.00,98.42
1493.00,98.05
1492.00,97.78
1491.00,97.70
1490.00,97.81
1489.00,98.04
1488.00,98.27
1487.00,98.45
1486.00,98.58
1485.00,98.68
1484.00,98.76
1483.00,98.83
1482.00,98.89
1481.00,98.94
1480.00,98.98
1479.00,99.01
1478.00,99.04
1477.00,99.06
1476.00,99.07
1475.00,99.09
1474.00,99.10
1473.00,99.11
1472.00,99.12
1471.00,99.13
1470.00,99.14
1469.00,99.15
1468.00,99.15
1467.00,99.15
1466.00,99.14
1465.00,99.14
1464.00,99.13
1463.00,99.12
1462.00,99.12
1461.00,99.11
1460.00,99.10
1459.00,99.08
1458.00,99.06
1457.00,99.02
1456.00,98.95
1455.00,98.87
1454.00,98.79
1453.00,98.69
1452.00,98.59
1451.00,98.48
1450.00,98.36
1449.00,98.21
1448.00,98.03
1447.00,97.83
1446.00,97.66
1445.00,97.58
1444.00,97.59
1443.00,97.68
1442.00,97.81
1441.00,97.94
1440.00,98.05
1439.00,98.14
1438.00,98.22
1437.00,98.31
1436.00,98.40
1435.00,98.48
1434.00,98.54
1433.00,98.60
1432.00,98.65
1431.00,98.70
1430.00,98.74
1429.00,98.78
1428.00,98.82
1427.00,98.85
1426.00,98.88
1425.00,98.91
1424.00,98.94
1423.00,98.96
1422.00,98.98
1421.00,98.99
1420.00,99.01
1419.00,99.03
1418.00,99.05
1417.00,99.06
1416.00,99.07
1415.00,99.08
1414.00,99.09
1413.00,99.10
1412.00,99.10
1411.00,99.10
1410.00,99.08
1409.00,99.07
1408.00,99.06
1407.00,99.05
1406.00,99.04
1405.00,99.03
1404.00,99.01
1403.00,98.99
1402.00,98.94
1401.00,98.88
1400.00,98.78
1399.00,98.63
1398.00,98.47
1397.00,98.33
1396.00,98.23
1395.00,98.19
1394.00,98.22
1393.00,98.29
1392.00,98.37
1391.00,98.46
1390.00,98.54
1389.00,98.61
1388.00,98.66
1387.00,98.70
1386.00,98.72
1385.00,98.73
1384.00,98.75
1383.00,98.76
1382.00,98.78
1381.00,98.80
1380.00,98.82
1379.00,98.84
1378.00,98.86
1377.00,98.88
1376.00,98.89
1375.00,98.90
1374.00,98.90
1373.00,98.89
1372.00,98.86
1371.00,98.81
1370.00,98.74
1369.00,98.68
1368.00,98.64
1367.00,98.63
1366.00,98.66
1365.00,98.71
1364.00,98.77
1363.00,98.82
1362.00,98.87
1361.00,98.90
1360.00,98.93
1359.00,98.95
1358.00,98.97
1357.00,98.99
1356.00,99.02
1355.00,99.04
1354.00,99.06
1353.00,99.08
1352.00,99.10
1351.00,99.12
1350.00,99.14
1349.00,99.16
1348.00,99.17
1347.00,99.19
1346.00,99.20
1345.00,99.21
1344.00,99.21
1343.00,99.22
1342.00,99.21
1341.00,99.20
1340.00,99.17
1339.00,99.12
1338.00,99.07
1337.00,99.04
1336.00,99.03
1335.00,99.05
1334.00,99.09
1333.00,99.12
1332.00,99.15
1331.00,99.17
1330.00,99.18
1329.00,99.18
1328.00,99.19
1327.00,99.19
1326.00,99.20
1325.00,99.21
1324.00,99.21
1323.00,99.22
1322.00,99.23
1321.00,99.23
1320.00,99.24
1319.00,99.25
1318.00,99.25
1317.00,99.25
1316.00,99.25
1315.00,99.25
1314.00,99.25
1313.00,99.24
1312.00,99.24
1311.00,99.24
1310.00,99.24
1309.00,99.24
1308.00,99.24
1307.00,99.23
1306.00,99.23
1305.00,99.23
1304.00,99.23
1303.00,99.23
1302.00,99.23
1301.00,99.24
1300.00,99.24
1299.00,99.24
1298.00,99.24
1297.00,99.25
1296.00,99.25
1295.00,99.25
1294.00,99.26
1293.00,99.26
1292.00,99.26
1291.00,99.26
1290.00,99.25
1289.00,99.24
1288.00,99.22
1287.00,99.20
1286.00,99.16
1285.00,99.12
1284.00,99.08
1283.00,99.05
1282.00,99.04
1281.00,99.04
1280.00,99.06
1279.00,99.09
1278.00,99.12
1277.00,99.14
1276.00,99.15
1275.00,99.16
1274.00,99.16
1273.00,99.16
1272.00,99.15
1271.00,99.15
1270.00,99.14
1269.00,99.13
1268.00,99.11
1267.00,99.10
1266.00,99.08
1265.00,99.06
1264.00,99.05
1263.00,99.03
1262.00,99.01
1261.00,98.99
1260.00,98.97
1259.00,98.95
1258.00,98.95
1257.00,98.95
1256.00,98.96
1255.00,98.98
1254.00,99.00
1253.00,99.01
1252.00,99.02
1251.00,99.02
1250.00,99.03
1249.00,99.03
1248.00,99.02
1247.00,99.02
1246.00,99.02
1245.00,99.01
1244.00,99.00
1243.00,99.00
1242.00,98.99
1241.00,98.99
1240.00,98.99
1239.00,98.99
1238.00,98.99
1237.00,98.99
1236.00,98.99
1235.00,99.00
1234.00,99.01
1233.00,99.02
1232.00,99.03
1231.00,99.03
1230.00,99.04
1229.00,99.04
1228.00,99.05
1227.00,99.05
1226.00,99.06
1225.00,99.07
1224.00,99.07
1223.00,99.08
1222.00,99.08
1221.00,99.08
1220.00,99.08
1219.00,99.07
1218.00,99.06
1217.00,99.04
1216.00,99.02
1215.00,98.99
1214.00,98.97
1213.00,98.97
1212.00,98.97
1211.00,98.98
1210.00,99.00
1209.00,99.01
1208.00,99.02
1207.00,99.03
1206.00,99.03
1205.00,99.03
1204.00,99.03
1203.00,99.03
1202.00,99.03
1201.00,99.04
1200.00,99.04
1199.00,99.04
1198.00,99.04
1197.00,99.04
1196.00,99.04
1195.00,99.03
1194.00,99.02
1193.00,99.01
1192.00,98.99
1191.00,98.96
1190.00,98.92
1189.00,98.88
1188.00,98.83
1187.00,98.78
1186.00,98.73
1185.00,98.70
1184.00,98.68
1183.00,98.68
1182.00,98.69
1181.00,98.70
1180.00,98.73
1179.00,98.75
1178.00,98.78
1177.00,98.81
1176.00,98.83
1175.00,98.86
1174.00,98.88
1173.00,98.90
1172.00,98.92
1171.00,98.93
1170.00,98.94
1169.00,98.95
1168.00,98.96
1167.00,98.96
1166.00,98.96
1165.00,98.96
1164.00,98.96
1163.00,98.95
1162.00,98.95
1161.00,98.94
1160.00,98.93
1159.00,98.93
1158.00,98.92
1157.00,98.91
1156.00,98.90
1155.00,98.90
1154.00,98.91
1153.00,98.93
1152.00,98.95
1151.00,98.96
1150.00,98.97
1149.00,98.97
1148.00,98.98
1147.00,98.99
1146.00,99.00
1145.00,99.01
1144.00,99.02
1143.00,99.03
1142.00,99.03
1141.00,99.04
1140.00,99.04
1139.00,99.04
1138.00,99.04
1137.00,99.03
1136.00,99.03
1135.00,99.03
1134.00,99.03
1133.00,99.03
1132.00,99.03
1131.00,99.03
1130.00,99.03
1129.00,99.03
1128.00,99.03
1127.00,99.03
1126.00,99.03
1125.00,99.04
1124.00,99.04
1123.00,99.04
1122.00,99.04
1121.00,99.03
1120.00,99.03
1119.00,99.03
1118.00,99.03
1117.00,99.04
1116.00,99.04
1115.00,99.03
1114.00,99.03
1113.00,99.02
1112.00,99.01
1111.00,99.01
1110.00,99.00
1109.00,98.99
1108.00,98.98
1107.00,98.97
1106.00,98.95
1105.00,98.93
1104.00,98.91
1103.00,98.89
1102.00,98.88
1101.00,98.88
1100.00,98.89
1099.00,98.90
1098.00,98.90
1097.00,98.91
1096.00,98.91
1095.00,98.91
1094.00,98.91
1093.00,98.92
1092.00,98.92
1091.00,98.92
1090.00,98.92
1089.00,98.92
1088.00,98.92
1087.00,98.92
1086.00,98.92
1085.00,98.93
1084.00,98.93
1083.00,98.93
1082.00,98.93
1081.00,98.93
1080.00,98.91
1079.00,98.89
1078.00,98.83
1077.00,98.74
1076.00,98.60
1075.00,98.44
1074.00,98.31
1073.00,98.25
1072.00,98.27
1071.00,98.34
1070.00,98.43
1069.00,98.52
1068.00,98.59
1067.00,98.65
1066.00,98.70
1065.00,98.75
1064.00,98.78
1063.00,98.81
1062.00,98.83
1061.00,98.85
1060.00,98.87
1059.00,98.89
1058.00,98.90
1057.00,98.91
1056.00,98.92
1055.00,98.92
1054.00,98.93
1053.00,98.94
1052.00,98.94
1051.00,98.94
1050.00,98.94
1049.00,98.94
1048.00,98.94
1047.00,98.95
1046.00,98.96
1045.00,98.96
1044.00,98.97
1043.00,98.98
1042.00,98.99
1041.00,99.00
1040.00,99.01
1039.00,99.02
1038.00,99.02
1037.00,99.03
1036.00,99.03
1035.00,99.03
1034.00,99.03
1033.00,99.01
1032.00,98.99
1031.00,98.95
1030.00,98.90
1029.00,98.83
1028.00,98.75
1027.00,98.68
1026.00,98.62
1025.00,98.59
1024.00,98.58
1023.00,98.58
1022.00,98.60
1021.00,98.61
1020.00,98.61
1019.00,98.59
1018.00,98.55
1017.00,98.49
1016.00,98.42
1015.00,98.38
1014.00,98.36
1013.00,98.37
1012.00,98.42
1011.00,98.48
1010.00,98.55
1009.00,98.63
1008.00,98.69
1007.00,98.75
1006.00,98.80
1005.00,98.84
1004.00,98.87
1003.00,98.89
1002.00,98.91
1001.00,98.93
1000.00,98.95
999.00,98.97
998.00,99.00
997.00,99.04
996.00,99.07
995.00,99.10
994.00,99.12
993.00,99.14
992.00,99.14
991.00,99.14
990.00,99.14
989.00,99.14
988.00,99.14
987.00,99.15
986.00,99.14
985.00,99.08
984.00,98.99
983.00,98.89
982.00,98.84
981.00,98.84
980.00,98.88
979.00,98.87
978.00,98.71
977.00,98.39
976.00,97.95
975.00,97.51
974.00,97.17
973.00,96.94
972.00,96.80
971.00,96.77
970.00,96.88
969.00,97.11
968.00,97.38
967.00,97.57
966.00,97.60
965.00,97.47
964.00,97.16
963.00,96.64
962.00,95.88
961.00,94.99
960.00,94.26
959.00,93.98
958.00,94.22
957.00,94.84
956.00,95.56
955.00,96.16
954.00,96.59
953.00,96.85
952.00,97.01
951.00,97.16
950.00,97.34
949.00,97.56
948.00,97.78
947.00,97.99
946.00,98.16
945.00,98.30
944.00,98.41
943.00,98.50
942.00,98.58
941.00,98.66
940.00,98.72
939.00,98.77
938.00,98.82
937.00,98.87
936.00,98.91
935.00,98.94
934.00,98.98
933.00,99.01
932.00,99.03
931.00,99.06
930.00,99.08
929.00,99.10
928.00,99.11
927.00,99.13
926.00,99.14
925.00,99.16
924.00,99.17
923.00,99.18
922.00,99.19
921.00,99.19
920.00,99.19
919.00,99.18
918.00,99.17
917.00,99.16
916.00,99.15
915.00,99.14
914.00,99.10
913.00,99.03
912.00,98.92
911.00,98.81
910.00,98.76
909.00,98.79
908.00,98.88
907.00,99.00
906.00,99.09
905.00,99.17
904.00,99.21
903.00,99.25
902.00,99.27
901.00,99.29
900.00,99.30
899.00,99.32
898.00,99.33
897.00,99.35
896.00,99.36
895.00,99.37
894.00,99.38
893.00,99.40
892.00,99.41
891.00,99.42
890.00,99.42
889.00,99.42
888.00,99.42
887.00,99.42
886.00,99.42
885.00,99.42
884.00,99.42
883.00,99.42
882.00,99.42
881.00,99.43
880.00,99.44
879.00,99.45
878.00,99.46
877.00,99.48
876.00,99.50
875.00,99.51
874.00,99.53
873.00,99.54
872.00,99.55
871.00,99.56
870.00,99.57
869.00,99.57
868.00,99.58
867.00,99.59
866.00,99.59
865.00,99.60
864.00,99.60
863.00,99.61
862.00,99.61
861.00,99.62
860.00,99.61
859.00,99.60
858.00,99.59
857.00,99.58
856.00,99.58
855.00,99.58
854.00,99.59
853.00,99.59
852.00,99.59
851.00,99.58
850.00,99.54
849.00,99.48
848.00,99.41
847.00,99.28
846.00,99.09
845.00,98.88
844.00,98.74
843.00,98.74
842.00,98.88
841.00,99.06
840.00,99.21
839.00,99.25
838.00,99.20
837.00,99.07
836.00,98.93
835.00,98.84
834.00,98.83
833.00,98.91
832.00,99.04
831.00,99.18
830.00,99.31
829.00,99.40
828.00,99.46
827.00,99.51
826.00,99.54
825.00,99.57
824.00,99.59
823.00,99.60
822.00,99.62
821.00,99.63
820.00,99.65
819.00,99.66
818.00,99.67
817.00,99.68
816.00,99.69
815.00,99.70
814.00,99.71
813.00,99.71
812.00,99.72
811.00,99.72
810.00,99.73
809.00,99.73
808.00,99.74
807.00,99.74
806.00,99.74
805.00,99.75
804.00,99.75
803.00,99.76
802.00,99.76
801.00,99.77
800.00,99.78
799.00,99.78
798.00,99.79
797.00,99.80
796.00,99.80
795.00,99.81
794.00,99.82
793.00,99.83
792.00,99.84
791.00,99.85
790.00,99.86
789.00,99.87
788.00,99.88
787.00,99.89
786.00,99.91
785.00,99.92
784.00,99.94
783.00,99.95
782.00,99.96
781.00,99.97
780.00,99.97
779.00,99.98
778.00,99.98
777.00,99.99
776.00,99.99
775.00,100.00
774.00,100.00
773.00,100.00
772.00,100.00
771.00,100.00
770.00,100.00
769.00,99.99
768.00,99.98
767.00,99.97
766.00,99.95
765.00,99.94
764.00,99.91
763.00,99.88
762.00,99.82
761.00,99.73
760.00,99.60
759.00,99.42
758.00,99.20
757.00,98.92
756.00,98.53
755.00,98.01
754.00,97.37
753.00,96.69
752.00,96.10
751.00,95.76
750.00,95.73
749.00,95.99
748.00,96.42
747.00,96.88
746.00,97.32
745.00,97.72
744.00,98.07
743.00,98.39
742.00,98.66
741.00,98.87
740.00,99.04
739.00,99.17
738.00,99.27
737.00,99.35
736.00,99.41
735.00,99.47
734.00,99.52
733.00,99.56
732.00,99.59
731.00,99.62
730.00,99.65
729.00,99.68
728.00,99.70
727.00,99.72
726.00,99.74
725.00,99.75
724.00,99.76
723.00,99.78
722.00,99.79
721.00,99.80
720.00,99.81
719.00,99.82
718.00,99.82
717.00,99.82
716.00,99.82
715.00,99.82
714.00,99.82
713.00,99.83
712.00,99.83
711.00,99.83
710.00,99.82
709.00,99.80
708.00,99.78
707.00,99.74
706.00,99.70
705.00,99.64
704.00,99.58
703.00,99.50
702.00,99.41
701.00,99.30
700.00,99.16
699.00,99.01
698.00,98.86
697.00,98.69
696.00,98.46
695.00,98.13
694.00,97.66
693.00,97.09
692.00,96.51
691.00,96.07
690.00,95.91
689.00,96.12
688.00,96.62
687.00,97.25
686.00,97.84
685.00,98.31
684.00,98.66
683.00,98.90
682.00,99.07
681.00,99.19
680.00,99.28
679.00,99.35
678.00,99.41
677.00,99.45
676.00,99.47
675.00,99.48
674.00,99.47
673.00,99.43
672.00,99.37
671.00,99.29
670.00,99.21
669.00,99.15
668.00,99.15
667.00,99.21
666.00,99.30
665.00,99.39
664.00,99.47
663.00,99.53
662.00,99.58
661.00,99.61
660.00,99.64
659.00,99.67
658.00,99.69
657.00,99.70
656.00,99.72
655.00,99.73
654.00,99.74
653.00,99.75
652.00,99.76
651.00,99.76
650.00,99.77
649.00,99.77
648.00,99.78
647.00,99.78
646.00,99.79
645.00,99.80
644.00,99.81
643.00,99.81
642.00,99.82
641.00,99.82
640.00,99.83
639.00,99.83
638.00,99.83
637.00,99.84
636.00,99.84
635.00,99.84
634.00,99.84
633.00,99.85
632.00,99.85
631.00,99.85
630.00,99.86
629.00,99.86
628.00,99.86
627.00,99.86
626.00,99.86
625.00,99.86
624.00,99.86
623.00,99.86
622.00,99.85
621.00,99.85
620.00,99.84
619.00,99.85
618.00,99.85
617.00,99.86
616.00,99.87
615.00,99.87
614.00,99.87
613.00,99.88
612.00,99.88
611.00,99.88
610.00,99.89
609.00,99.89
608.00,99.90
607.00,99.90
606.00,99.90
605.00,99.91
604.00,99.92
603.00,99.92
602.00,99.93
601.00,99.93
600.00,99.94
599.00,99.94
598.00,99.94
597.00,99.94
596.00,99.94
595.00,99.94
594.00,99.94
593.00,99.95
592.00,99.95
591.00,99.95
590.00,99.95
589.00,99.94
588.00,99.95
587.00,99.96
586.00,99.97
585.00,99.98
584.00,99.98
583.00,99.97
582.00,99.95
581.00,99.90
580.00,99.77
579.00,99.60
578.00,99.41
577.00,99.28
576.00,99.26
575.00,99.32
574.00,99.41
573.00,99.50
572.00,99.59
571.00,99.66
570.00,99.72
569.00,99.77
568.00,99.80
567.00,99.83
566.00,99.85
565.00,99.86
564.00,99.87
563.00,99.87
562.00,99.88
561.00,99.88
560.00,99.89
559.00,99.89
558.00,99.89
557.00,99.89
556.00,99.90
555.00,99.90
554.00,99.90
553.00,99.91
552.00,99.91
551.00,99.92
550.00,99.92
549.00,99.92
548.00,99.92
547.00,99.93
546.00,99.93
545.00,99.93
544.00,99.93
543.00,99.92
542.00,99.90
541.00,99.86
540.00,99.78
539.00,99.63
538.00,99.39
537.00,99.02
536.00,98.56
535.00,98.08
534.00,97.75
533.00,97.68
532.00,97.90
531.00,98.27
530.00,98.66
529.00,98.96
528.00,99.18
527.00,99.34
526.00,99.45
525.00,99.52
524.00,99.57
523.00,99.61
522.00,99.64
521.00,99.66
520.00,99.68
519.00,99.70
518.00,99.72
517.00,99.73
516.00,99.74
515.00,99.76
514.00,99.77
513.00,99.77
512.00,99.78
511.00,99.78
510.00,99.79
509.00,99.79
508.00,99.80
507.00,99.82
506.00,99.82
505.00,99.83
504.00,99.83
503.00,99.84
502.00,99.84
501.00,99.85
500.00,99.85
499.00,99.86
498.00,99.87
497.00,99.86
496.00,99.85
495.00,99.82
494.00,99.78
493.00,99.74
492.00,99.72
491.00,99.73
490.00,99.76
489.00,99.79
488.00,99.81
487.00,99.84
486.00,99.86
485.00,99.87
484.00,99.88
483.00,99.88
482.00,99.87
481.00,99.87
480.00,99.87
479.00,99.87
478.00,99.88
477.00,99.88
476.00,99.89
475.00,99.90
474.00,99.92
473.00,99.93
472.00,99.95
471.00,99.96
470.00,99.96
469.00,99.95
468.00,99.95
467.00,99.95
466.00,99.96
465.00,99.96
464.00,99.96
463.00,99.98
462.00,99.99
461.00,100.00
460.00,100.00
459.00,100.01
458.00,100.01
457.00,100.01
456.00,100.02
455.00,100.02
454.00,100.01
453.00,100.01
452.00,100.01
451.00,100.01
450.00,100.01
449.00,100.01
448.00,100.01
447.00,100.02
446.00,100.02
445.00,100.02
444.00,100.02
443.00,100.02
442.00,100.03
441.00,100.04
440.00,100.05
439.00,100.05
438.00,100.06
437.00,100.06
436.00,100.07
435.00,100.07
434.00,100.06
433.00,100.06
432.00,100.06
431.00,100.07
430.00,100.09
429.00,100.10
428.00,100.11
427.00,100.11
426.00,100.11
425.00,100.09
424.00,100.08
423.00,100.08
422.00,100.08
421.00,100.08
420.00,100.07
419.00,100.06
418.00,100.05
417.00,100.05
416.00,100.06
415.00,100.07
414.00,100.08
413.00,100.08
412.00,100.06
411.00,100.04
410.00,100.01
409.00,99.99
408.00,99.99
407.00,100.00
406.00,100.02
405.00,100.02
404.00,100.03
403.00,100.04
402.00,100.05
401.00,100.06
400.00,100.08
