URL	chrom://isq7ci2006004/ChromeleonLocal/Instrument Data/Aspuru-Guzik/Stanley/2024_12_16_005c-H.seq/936.smp/MSDevice.xraw
Channel	TIC

Injection Information:
Data Vault	ChromeleonLocal
Sequence	2024_12_16_005c-H
Name	005c-H1F_conc
Number	6
Position	4
Comment	
Processing Method	Basic Quantitative
Instrument Method	2024_12_16_005c-H - Copy
Type	Unknown
Status	Finished
Inject Time	12/16/2024 3:33:19 PM -05:00
Volume (µl)	3.0000
Dilution Factor	1.0000
Weight	1.0000

Raw Data Information:
Data Points	269
Mass Min. (m/z)	150.000000
Mass Max. (m/z)	399.968075
Retention Time (min)	3.653530
Mass Resolution	0.500000
Tolerance Unit	Amu
Scan Number	340
Scan Type	+ c EI Full ms [150.00-400.00]
Is Centroid Scan	True
Base Peak Mass	207.032425
Base Peak Intensity	897,742.250000
Total Ion Count	6,970,354.144441

Raw Data:
Mass (m/z)	Value (counts)
150.2	8,369.161133
151.0	15,742.467773
152.0	21,297.226563
152.6	2,888.423340
153.1	50,125.656250
154.1	15,787.583984
154.8	353.989319
155.6	15,782.662109
156.3	5,552.017090
157.0	11,431.945313
158.2	36,339.812500
159.0	624,676.125000
160.0	73,842.992188
161.1	267,253.468750
162.1	151,626.750000
163.1	33,559.632813
164.1	11,847.871094
165.0	36,382.488281
166.1	11,922.393555
166.9	3,825.420898
167.5	4,854.714355
168.9	3,700.596436
169.8	1,157.270508
170.5	6,653.023438
171.2	7,200.704102
172.0	30,236.480469
173.1	31,226.871094
174.1	7,243.504395
175.1	17,552.087891
176.0	13,342.784180
177.0	63,913.562500
177.9	25,809.425781
178.9	18,230.082031
179.9	11,159.791992
180.9	14,439.117188
182.2	2,362.656006
182.8	2,567.007568
183.4	6,529.892090
185.0	211,181.375000
186.1	33,328.453125
187.0	5,825.572266
188.1	6,994.246094
189.0	14,045.712891
189.8	11,117.262695
190.6	37,324.710938
191.1	128,841.539063
192.0	23,712.261719
193.0	91,458.820313
193.9	19,177.685547
194.7	14,347.043945
195.3	13,143.026367
196.2	14,171.550781
197.1	30,805.707031
198.1	6,706.952148
199.1	9,363.278320
200.1	45.321335
201.4	7,022.774902
202.7	1,733.050781
203.2	6,611.908203
204.1	4,641.832520
205.0	31,320.408203
205.9	8,879.001953
207.0	897,742.250000
208.1	163,852.281250
209.0	112,796.117188
210.1	24,772.201172
211.1	6,322.731445
212.1	2,822.013428
213.1	571.874634
214.2	2,821.765869
215.2	6,690.418945
216.5	4,196.581543
217.6	4,615.567383
218.3	1,551.409058
219.2	3,778.427490
219.9	6,212.657715
221.0	113,301.507813
221.9	31,914.761719
223.0	34,211.750000
223.9	2,632.479492
224.6	5,335.236328
225.5	4,524.511719
226.0	160.179489
226.7	1,120.549316
227.2	3,445.950684
228.0	3,080.785889
229.0	11,179.541016
230.1	250.141159
230.7	0.104000
231.4	1,237.684448
232.6	2,067.117676
233.2	4,288.737305
234.0	4,362.117188
235.0	6,298.895996
235.7	4,061.881104
236.5	139.919510
237.1	1,978.040283
237.6	928.016357
238.2	6,105.875488
239.0	6,595.239746
240.0	1,747.236572
240.6	195.490738
241.4	2,342.075439
242.1	3,603.676270
243.1	14,616.720703
244.0	2,503.064941
244.5	21.540846
245.8	1,393.860840
246.7	1,002.229431
247.3	1,389.531128
248.9	51,492.238281
249.9	14,824.400391
250.9	31,633.894531
252.1	9,963.646484
253.0	48,394.902344
253.8	19,482.832031
254.7	13,543.225586
255.4	5,106.866211
256.2	4,735.680176
256.9	5,122.465332
258.7	2,487.306152
259.5	12.209201
260.1	958.682190
261.0	8,536.684570
262.1	10,947.695313
263.0	25,538.660156
264.0	203,114.515625
265.0	88,509.906250
266.1	31,264.064453
267.0	68,262.609375
268.0	26,118.525391
268.9	21,985.742188
269.5	2,721.536621
270.1	7,841.843750
271.0	4,736.577148
271.6	9.932026
272.2	71.782921
273.2	4,459.320801
274.0	1,743.835815
275.0	229.134689
276.0	2,561.172119
277.4	654.991089
278.2	1,901.104370
278.9	4,582.006836
279.7	6,749.984375
281.0	581,437.437500
282.0	132,840.593750
283.1	94,066.625000
284.0	14,683.730469
284.9	4,233.730957
285.7	1,674.526733
286.4	40.172920
287.5	2,966.337891
288.1	1,605.380737
289.2	0.814270
290.8	147.321579
292.0	0.359683
293.0	10,068.853516
294.1	907.842102
295.1	19,564.085938
296.0	15,526.550781
297.0	11,719.083008
297.9	3,729.746582
298.7	7,441.601563
299.8	2,984.294189
300.8	3,477.018555
301.3	39.813084
302.1	2,820.310547
303.3	0.471013
304.1	1,321.488403
305.1	2,235.502197
306.9	509.942261
308.0	865.733826
309.0	2,415.316895
310.0	741.635925
310.9	11,906.617188
311.9	4,170.646973
312.9	15,966.754883
313.9	1,540.184692
315.0	60,388.007813
316.0	30,172.941406
316.6	10,617.777344
317.2	5,804.416016
319.0	130.472946
319.9	173.169083
320.5	1.598099
321.4	7.562550
322.9	6,117.960938
323.8	5,453.860352
324.9	45,574.210938
325.9	11,298.708008
326.9	85,924.320313
327.9	46,775.937500
328.8	14,116.480469
329.5	4,494.407227
330.7	13,421.541992
331.6	2,806.062988
332.1	1,511.723022
332.9	3,992.065918
334.0	145,388.937500
335.2	51,584.390625
336.2	8,606.307617
336.8	2,909.087158
338.1	52.986149
339.1	24,953.236328
340.1	8,798.469727
340.9	144,181.031250
341.8	41,903.972656
342.9	37,069.042969
343.9	11,501.464844
344.9	3,762.085205
345.8	3,069.263184
346.6	4,454.736328
347.1	1,897.385742
348.2	1,100.783936
349.1	1,777.844849
349.9	79.922676
351.1	48.478565
352.9	3,462.231445
355.0	163,490.687500
356.1	68,991.437500
356.8	17,335.439453
357.3	18,761.894531
358.0	10,261.417969
359.0	8,685.016602
359.7	3,035.404541
360.6	33.572674
361.2	2,313.322266
362.8	31.197437
363.7	0.423735
364.7	146.897827
365.3	851.078186
366.3	0.001940
366.8	1,601.497681
367.5	3,938.107422
368.4	894.037964
369.1	15,260.095703
370.1	7,209.004395
370.8	4,378.520996
371.8	5,861.788086
373.0	6,787.323730
374.5	9,717.133789
375.3	5,121.961426
376.1	1,346.864014
376.9	28,206.621094
377.8	18,155.296875
378.6	14,784.158203
379.2	4,039.617920
379.8	3,090.129639
381.2	3,476.396729
382.2	339.467682
383.0	9,272.077148
383.7	1,999.227173
384.7	10,798.874023
385.2	185.338776
386.0	8,311.088867
387.0	4,312.865723
387.9	1,791.518433
389.0	19,804.292969
390.1	4,476.461426
391.4	5,568.261719
392.3	4,262.218262
392.9	2,537.056641
394.0	10.727527
395.0	35.890591
396.8	2,186.333984
398.4	1,655.041138
398.9	12,422.962891
399.7	7,872.803711
