URL	chrom:TIC.chm
Channel	TIC

Injection Information:
Data Vault	ChromeleonLocal
Sequence	2024_12_16_005c-H
Name	005c-H1F_conc
Number	6
Position	4
Comment	
Processing Method	Basic Quantitative
Instrument Method	2024_12_16_005c-H - Copy
Type	Unknown
Status	Finished
Inject Time	12/16/2024 3:33:19 PM -05:00
Volume (µl)	3.0000
Dilution Factor	1.0000
Weight	1.0000

Chromatogram Data Information:
Time Min. (min)	2.500587
Time Max. (min)	6.993328
Data Points	1322
Detector	MSDevice
Generating Data System	Chromeleon 7.3 Build 60919 (5efd55c28726aa174740e3ad3b435409b51aa6a1)
Exporting Data System	Chromeleon 7.3.0.0
Operator	Instrument Controller
Signal Quantity	Intensity
Signal Unit	counts
Signal Min.	3253117.066459
Signal Max.	152826177.096965
Channel	TIC
Driver Name	Thermo.MassSpectrometer
Channel Type	Evaluation
Min. Step (s)	0.204
Max. Step (s)	0.2041
Average Step (s)	0.20406094

Signal Parameter Information:
Signal Info	

Chromatogram Data:
Time (min)	Step (s)	Value (counts)
2.500587	n.a.	3361364.110596
2.503987	0.204	3418360.028854
2.507388	0.2041	3450136.561159
2.510790	0.2041	3477265.091007
2.514190	0.204	3551929.388148
2.517592	0.2041	3419664.059080
2.520992	0.204	3421490.597811
2.524393	0.2041	3549401.454618
2.527795	0.2041	3488705.691667
2.531195	0.204	3406011.520294
2.534597	0.2041	3442735.032856
2.537997	0.204	3507862.942415
2.541398	0.2041	3569904.630472
2.544800	0.2041	3414823.400567
2.548200	0.204	3253117.066459
2.551602	0.2041	3514662.942922
2.555002	0.204	3563375.874636
2.558403	0.2041	3502679.618951
2.561805	0.2041	3580795.656721
2.565205	0.204	3467907.302891
2.568607	0.2041	3465402.546325
2.572008	0.2041	3512822.747784
2.575408	0.204	3439659.416912
2.578810	0.2041	3329215.662916
2.582210	0.204	3368923.160008
2.585612	0.2041	3536527.700776
2.589013	0.2041	3546084.465819
2.592413	0.204	3406915.822416
2.595815	0.2041	3439674.510650
2.599215	0.204	3548543.545107
2.602617	0.2041	3550005.699985
2.606018	0.2041	3738475.425645
2.609418	0.204	3705299.901582
2.612820	0.2041	3595018.000598
2.616220	0.204	3612937.262066
2.619622	0.2041	3500434.032623
2.623023	0.2041	3512630.160489
2.626423	0.204	3642752.267561
2.629825	0.2041	3763263.029747
2.633225	0.204	3686212.333952
2.636627	0.2041	3585460.296051
2.640028	0.2041	3605619.645691
2.643428	0.204	3704496.415326
2.646830	0.2041	3617936.329303
2.650232	0.2041	3578845.139328
2.653632	0.204	3749050.149828
2.657033	0.2041	3616394.810742
2.660433	0.204	3592463.964503
2.663835	0.2041	3601446.236266
2.667237	0.2041	3588724.382535
2.670637	0.204	3704842.555671
2.674038	0.2041	3667918.563399
2.677438	0.204	3685654.748827
2.680840	0.2041	3658017.311296
2.684242	0.2041	3582949.076500
2.687642	0.204	3700651.717187
2.691043	0.2041	3718960.285677
2.694443	0.204	3628201.192746
2.697845	0.2041	3608107.986195
2.701247	0.2041	3663940.887914
2.704647	0.204	3749537.869011
2.708048	0.2041	3704964.381016
2.711450	0.2041	3672958.624201
2.714850	0.204	3676544.473916
2.718252	0.2041	3701506.923358
2.721652	0.204	3696482.329118
2.725053	0.2041	3678811.923540
2.728455	0.2041	3727248.275215
2.731855	0.204	3734289.060463
2.735257	0.2041	3702594.818076
2.738657	0.204	3743534.661226
2.742058	0.2041	3827977.713369
2.745460	0.2041	3753693.968808
2.748860	0.204	3810704.154375
2.752262	0.2041	3939939.761979
2.755662	0.204	3754015.015721
2.759063	0.2041	3683978.193093
2.762465	0.2041	3693432.067249
2.765865	0.204	3702445.774187
2.769267	0.2041	3703270.748456
2.772667	0.204	3612315.897525
2.776068	0.2041	3737376.246769
2.779470	0.2041	3856307.641129
2.782870	0.204	3780235.670166
2.786272	0.2041	3854122.183515
2.789673	0.2041	3911806.924069
2.793073	0.204	3852180.146208
2.796475	0.2041	3912472.555495
2.799875	0.204	3811070.524498
2.803277	0.2041	3692521.626908
2.806678	0.2041	3765044.819302
2.810078	0.204	3776328.606911
2.813480	0.2041	3899025.624605
2.816880	0.204	3873004.737868
2.820282	0.2041	3694210.947481
2.823683	0.2041	3780601.737221
2.827083	0.204	3766845.399546
2.830485	0.2041	3808176.281817
2.833885	0.204	4007631.770275
2.837287	0.2041	3997310.514955
2.840688	0.2041	3934286.200557
2.844088	0.204	3844675.555030
2.847490	0.2041	3663735.005600
2.850892	0.2041	3754304.781451
2.854292	0.204	3942119.439388
2.857693	0.2041	3899935.727430
2.861093	0.204	3868757.293251
2.864495	0.2041	3821299.856985
2.867897	0.2041	3779503.718596
2.871297	0.204	3759212.197238
2.874698	0.2041	3794473.265232
2.878098	0.204	3897517.041920
2.881500	0.2041	3890748.507673
2.884902	0.2041	3819295.531593
2.888302	0.204	3783329.843762
2.891703	0.2041	3944964.820209
2.895103	0.204	3937731.138300
2.898505	0.2041	3815055.445742
2.901907	0.2041	3905822.887708
2.905307	0.204	3905844.779903
2.908708	0.2041	3958585.801163
2.912110	0.2041	4005075.061159
2.915510	0.204	4034463.948939
2.918912	0.2041	3966398.400317
2.922312	0.204	3920994.985466
2.925713	0.2041	4005645.268597
2.929115	0.2041	3999020.971367
2.932515	0.204	4075715.505290
2.935917	0.2041	4034456.780670
2.939317	0.204	4021470.973239
2.942718	0.2041	3953774.715236
2.946120	0.2041	3823605.599052
2.949520	0.204	4066639.300195
2.952922	0.2041	4105904.228120
2.956322	0.204	3885166.235484
2.959723	0.2041	3894047.529902
2.963125	0.2041	3986051.569475
2.966525	0.204	4046814.949729
2.969927	0.2041	4148604.873863
2.973327	0.204	4123746.837376
2.976728	0.2041	4016440.876204
2.980130	0.2041	4055472.538943
2.983530	0.204	3952003.160533
2.986932	0.2041	3977509.576521
2.990333	0.2041	4054648.537521
2.993733	0.204	4080735.921552
2.997135	0.2041	4134038.975558
3.000535	0.204	4106723.058848
3.003937	0.2041	4157159.822886
3.007338	0.2041	4104818.417166
3.010738	0.204	4055700.007695
3.014140	0.2041	4022764.966681
3.017540	0.204	4003982.694780
3.020942	0.2041	4155549.257741
3.024343	0.2041	4227650.248164
3.027743	0.204	4049813.367670
3.031145	0.2041	4058949.452344
3.034545	0.204	4072805.178876
3.037947	0.2041	4081504.215028
3.041348	0.2041	4254843.572493
3.044748	0.204	4259807.384690
3.048150	0.2041	4259584.292614
3.051552	0.2041	4287472.560746
3.054952	0.204	4420309.196411
3.058353	0.2041	4479809.258884
3.061753	0.204	4491032.783780
3.065155	0.2041	4721333.441932
3.068557	0.2041	4901387.384707
3.071957	0.204	5013720.199202
3.075358	0.2041	5189256.316668
3.078758	0.204	5452103.385943
3.082160	0.2041	5669493.223008
3.085562	0.2041	5757261.549254
3.088962	0.204	5464123.488236
3.092363	0.2041	5098150.337386
3.095763	0.204	5016773.994858
3.099165	0.2041	4882490.967534
3.102567	0.2041	4797056.145176
3.105967	0.204	4883876.310059
3.109368	0.2041	5148483.348622
3.112768	0.204	5420506.532352
3.116170	0.2041	5453091.181280
3.119572	0.2041	5192285.129786
3.122972	0.204	4986298.249207
3.126373	0.2041	4858880.885498
3.129775	0.2041	4597105.657575
3.133175	0.204	4378932.425413
3.136577	0.2041	4268932.669988
3.139977	0.204	4193074.919076
3.143378	0.2041	4359198.563848
3.146780	0.2041	4569856.131781
3.150180	0.204	4389573.700425
3.153582	0.2041	4300168.778568
3.156982	0.204	4326412.614235
3.160383	0.2041	4166401.040012
3.163785	0.2041	4175803.388848
3.167185	0.204	4130122.331639
3.170587	0.2041	4088914.815718
3.173987	0.204	4135658.295360
3.177388	0.2041	4161770.120844
3.180790	0.2041	4263954.610919
3.184190	0.204	4348255.841851
3.187592	0.2041	4392476.067187
3.190993	0.2041	4284331.716856
3.194393	0.204	4257732.420280
3.197795	0.2041	4168425.279869
3.201195	0.204	4032707.485269
3.204597	0.2041	4195582.355295
3.207998	0.2041	4264185.751530
3.211398	0.204	4201515.869334
3.214800	0.2041	4274087.830769
3.218200	0.204	4335213.301166
3.221602	0.2041	4273525.490593
3.225003	0.2041	4292994.217314
3.228403	0.204	4424466.880371
3.231805	0.2041	4303166.377292
3.235205	0.204	4185831.845327
3.238607	0.2041	4265086.886596
3.242008	0.2041	4272098.390544
3.245408	0.204	4324797.491585
3.248810	0.2041	4366025.075298
3.252210	0.204	4296682.367514
3.255612	0.2041	4319223.236782
3.259013	0.2041	4360902.320427
3.262413	0.204	4355248.091137
3.265815	0.2041	4415119.922206
3.269217	0.2041	4590004.270603
3.272617	0.204	4789036.677756
3.276018	0.2041	4789441.540878
3.279418	0.204	5132961.663743
3.282820	0.2041	5454566.593048
3.286222	0.2041	5282908.179959
3.289622	0.204	5377604.170322
3.293023	0.2041	5602620.409844
3.296423	0.204	5664174.844908
3.299825	0.2041	5712960.542895
3.303227	0.2041	5531914.842180
3.306627	0.204	5476718.994877
3.310028	0.2041	5499219.382959
3.313428	0.204	5241920.110338
3.316830	0.2041	5083385.731178
3.320232	0.2041	4952658.392519
3.323632	0.204	4791093.188297
3.327033	0.2041	4481743.907376
3.330435	0.2041	4410718.650715
3.333835	0.204	4548584.066392
3.337237	0.2041	4548940.369074
3.340637	0.204	4582602.190504
3.344038	0.2041	4424865.453778
3.347440	0.2041	4366907.262734
3.350840	0.204	4328330.137702
3.354242	0.2041	4231343.387272
3.357642	0.204	4440224.702665
3.361043	0.2041	4511805.796352
3.364445	0.2041	4335951.054187
3.367845	0.204	4362433.352385
3.371247	0.2041	4477160.478544
3.374647	0.204	4488295.777769
3.378048	0.2041	4374026.178000
3.381450	0.2041	4412035.804089
3.384850	0.204	4641672.827862
3.388252	0.2041	4590685.090748
3.391653	0.2041	4388855.277482
3.395053	0.204	4327494.599000
3.398455	0.2041	4405426.269858
3.401855	0.204	4533777.631164
3.405257	0.2041	4554531.209255
3.408658	0.2041	4614775.773465
3.412058	0.204	4625174.815702
3.415460	0.2041	4657118.745604
3.418860	0.204	4812381.033478
3.422262	0.2041	4877970.067823
3.425663	0.2041	5020649.285984
3.429063	0.204	5317418.986146
3.432465	0.2041	5571859.516391
3.435865	0.204	5903842.311722
3.439267	0.2041	6132456.268263
3.442668	0.2041	6169371.274548
3.446068	0.204	6023429.187908
3.449470	0.2041	5806282.461185
3.452870	0.204	5768186.282219
3.456272	0.2041	5480759.325683
3.459673	0.2041	4947638.274141
3.463073	0.204	4818911.274767
3.466475	0.2041	4841699.211884
3.469877	0.2041	4554262.341763
3.473277	0.204	4597674.489637
3.476678	0.2041	4668561.979268
3.480078	0.204	4517857.112822
3.483480	0.2041	4518193.130241
3.486882	0.2041	4604483.611899
3.490282	0.204	4616583.154397
3.493683	0.2041	4489484.783343
3.497083	0.204	4541011.620996
3.500485	0.2041	4476615.595428
3.503887	0.2041	4444105.149619
3.507287	0.204	4708195.167487
3.510688	0.2041	4820808.190787
3.514088	0.204	4802501.880021
3.517490	0.2041	4891190.055543
3.520892	0.2041	5148486.579967
3.524292	0.204	5362763.160601
3.527693	0.2041	5491909.829332
3.531095	0.2041	5476129.942739
3.534495	0.204	5359199.386656
3.537897	0.2041	5355505.395600
3.541297	0.204	5319490.740663
3.544698	0.2041	5210015.158324
3.548100	0.2041	5221683.359580
3.551500	0.204	5186601.430771
3.554902	0.2041	5224149.891953
3.558302	0.204	5180928.374630
3.561703	0.2041	5025909.340819
3.565105	0.2041	5023872.271430
3.568505	0.204	4999563.828730
3.571907	0.2041	4825729.737344
3.575307	0.204	4647209.441256
3.578708	0.2041	4629404.432129
3.582110	0.2041	4670099.254373
3.585510	0.204	4654428.144968
3.588912	0.2041	4735691.549834
3.592312	0.204	4674026.649240
3.595713	0.2041	4522583.154132
3.599115	0.2041	4757615.325338
3.602515	0.204	4841206.159140
3.605917	0.2041	4708287.787484
3.609318	0.2041	4857127.907311
3.612718	0.204	4993753.189411
3.616120	0.2041	4842454.185602
3.619520	0.204	4826315.074022
3.622922	0.2041	4947536.543228
3.626323	0.2041	4848410.581786
3.629723	0.204	4807273.076984
3.633125	0.2041	5038505.460196
3.636525	0.204	5064168.033431
3.639927	0.2041	5151843.752816
3.643328	0.2041	5742002.046691
3.646728	0.204	6146429.005880
3.650130	0.2041	6534895.174578
3.653530	0.204	6970354.144441
3.656932	0.2041	6946806.307874
3.660333	0.2041	6740678.598685
3.663733	0.204	6541702.010294
3.667135	0.2041	6060828.350575
3.670537	0.2041	5612520.388807
3.673937	0.204	5476715.924883
3.677338	0.2041	5226999.900838
3.680738	0.204	4958907.527918
3.684140	0.2041	4896193.670949
3.687542	0.2041	4895352.846398
3.690942	0.204	4735392.839014
3.694343	0.2041	4651203.334634
3.697743	0.204	4803492.957923
3.701145	0.2041	4815420.797615
3.704547	0.2041	4657200.606143
3.707947	0.204	4665679.689570
3.711348	0.2041	4810070.685376
3.714748	0.204	4891385.281558
3.718150	0.2041	4850756.997059
3.721552	0.2041	4666278.659134
3.724952	0.204	4621970.956428
3.728353	0.2041	4662449.227076
3.731753	0.204	4634326.564656
3.735155	0.2041	4747862.048706
3.738557	0.2041	4805815.805064
3.741957	0.204	4792701.791862
3.745358	0.2041	4984798.691464
3.748760	0.2041	5168900.269868
3.752160	0.204	5690511.486924
3.755562	0.2041	7432202.822544
3.758962	0.204	10719280.695242
3.762363	0.2041	16539683.086581
3.765765	0.2041	25716883.721123
3.769165	0.204	38849421.453448
3.772567	0.2041	56712043.917592
3.775967	0.204	79001829.437201
3.779368	0.2041	103683987.573312
3.782770	0.2041	127748542.709047
3.786170	0.204	145354739.493467
3.789572	0.2041	152826177.096965
3.792972	0.204	149614509.574964
3.796373	0.2041	133650517.252498
3.799775	0.2041	106396387.469118
3.803175	0.204	75262480.333221
3.806577	0.2041	49577841.220519
3.809978	0.2041	31333222.046759
3.813378	0.204	19361996.077260
3.816780	0.2041	12607889.638264
3.820180	0.204	8932206.703860
3.823582	0.2041	7411830.902575
3.826983	0.2041	6663281.277178
3.830383	0.204	6120922.173443
3.833785	0.2041	5669409.711328
3.837185	0.204	5494172.495040
3.840587	0.2041	5525473.519038
3.843988	0.2041	5509594.684269
3.847388	0.204	5480711.352324
3.850790	0.2041	5297874.754015
3.854190	0.204	5229009.530530
3.857592	0.2041	5382249.882073
3.860993	0.2041	5309274.153520
3.864393	0.204	5138450.477267
3.867795	0.2041	5163740.491960
3.871197	0.2041	5109548.639261
3.874597	0.204	4977886.705072
3.877998	0.2041	5156739.587208
3.881398	0.204	5287487.883617
3.884800	0.2041	5211969.887782
3.888202	0.2041	5047593.525861
3.891602	0.204	4958055.697379
3.895003	0.2041	4917476.161991
3.898403	0.204	4955446.915812
3.901805	0.2041	5096230.579508
3.905207	0.2041	5017495.747119
3.908607	0.204	4989283.907491
3.912008	0.2041	4928877.102382
3.915408	0.204	4820448.286640
3.918810	0.2041	4915539.265553
3.922212	0.2041	4990991.767956
3.925612	0.204	5041775.529212
3.929013	0.2041	4931784.495961
3.932413	0.204	4854933.913011
3.935815	0.2041	4996598.384839
3.939217	0.2041	5004254.652245
3.942617	0.204	5093272.675636
3.946018	0.2041	5411284.136724
3.949420	0.2041	5820186.406861
3.952820	0.204	6651271.049512
3.956222	0.2041	8344535.940881
3.959622	0.204	11179537.607294
3.963023	0.2041	15719099.305006
3.966425	0.2041	21790714.784177
3.969825	0.204	28305508.375422
3.973227	0.2041	34795280.965276
3.976627	0.204	40187729.724122
3.980028	0.2041	42721865.760842
3.983430	0.2041	40674502.543529
3.986830	0.204	35046596.731655
3.990232	0.2041	27750669.031247
3.993632	0.204	19972749.866009
3.997033	0.2041	14393018.977723
4.000435	0.2041	10738816.473123
4.003835	0.204	7962646.034297
4.007237	0.2041	6678702.657296
4.010638	0.2041	5988699.212777
4.014038	0.204	5465867.970287
4.017440	0.2041	5405269.329679
4.020840	0.204	5508478.003924
4.024242	0.2041	5418231.513332
4.027643	0.2041	5119603.617511
4.031043	0.204	5275772.178402
4.034445	0.2041	5350097.309915
4.037845	0.204	5164889.973579
4.041247	0.2041	5099468.480112
4.044648	0.2041	4992104.867070
4.048048	0.204	5195441.415447
4.051450	0.2041	5144472.810203
4.054850	0.204	4850858.644133
4.058252	0.2041	5018536.222387
4.061653	0.2041	5073156.903997
4.065053	0.204	5030065.188874
4.068455	0.2041	5167325.521450
4.071855	0.204	5069255.701029
4.075257	0.2041	5033483.349743
4.078658	0.2041	5021103.003747
4.082058	0.204	5008580.502190
4.085460	0.2041	5076917.627867
4.088862	0.2041	5228646.434569
4.092262	0.204	5228714.995514
4.095663	0.2041	5106246.061836
4.099063	0.204	5226375.705777
4.102465	0.2041	5235670.528066
4.105867	0.2041	5157229.353026
4.109267	0.204	5052130.585609
4.112668	0.2041	5123553.081508
4.116068	0.204	5197275.941554
4.119470	0.2041	5149365.511964
4.122872	0.2041	5149890.362456
4.126272	0.204	5193948.046880
4.129673	0.2041	5263231.529576
4.133073	0.204	5191891.098159
4.136475	0.2041	5189516.572734
4.139877	0.2041	5168360.176768
4.143277	0.204	5133067.457190
4.146678	0.2041	5217570.008313
4.150080	0.2041	5179634.997481
4.153480	0.204	5093390.410487
4.156882	0.2041	5218702.567994
4.160282	0.204	5462991.213902
4.163683	0.2041	5573774.760357
4.167085	0.2041	5427643.865804
4.170485	0.204	5427288.614271
4.173887	0.2041	5673402.402127
4.177287	0.204	5775376.981426
4.180688	0.2041	5678588.951712
4.184090	0.2041	5531977.449384
4.187490	0.204	5412547.199036
4.190892	0.2041	5462091.989815
4.194292	0.204	5581021.941514
4.197693	0.2041	5568044.440005
4.201095	0.2041	5554030.250417
4.204495	0.204	5536468.338363
4.207897	0.2041	5516952.796158
4.211298	0.2041	5662742.023929
4.214698	0.204	5664880.889482
4.218100	0.2041	5577707.584798
4.221500	0.204	5520539.003539
4.224902	0.2041	5443039.053679
4.228303	0.2041	5468709.302258
4.231703	0.204	5539260.235321
4.235105	0.2041	5483485.285924
4.238505	0.204	5258533.448983
4.241907	0.2041	5336122.594024
4.245308	0.2041	5477132.218885
4.248708	0.204	5305290.934121
4.252110	0.2041	5391043.779642
4.255510	0.204	5439284.478109
4.258912	0.2041	5381357.978024
4.262313	0.2041	5454094.190759
4.265713	0.204	5488072.859381
4.269115	0.2041	5542783.787805
4.272515	0.204	5419024.281313
4.275917	0.2041	5521523.114616
4.279318	0.2041	5549859.575948
4.282718	0.204	5228425.269316
4.286120	0.2041	5278822.495449
4.289522	0.2041	5425977.129779
4.292922	0.204	5461848.152111
4.296323	0.2041	5416191.370869
4.299723	0.204	5130454.203804
4.303125	0.2041	5011980.975691
4.306527	0.2041	5199355.018004
4.309927	0.204	5184475.070349
4.313328	0.2041	5071096.955274
4.316728	0.204	5233259.830306
4.320130	0.2041	5239395.818214
4.323532	0.2041	5225836.722678
4.326932	0.204	5344865.350969
4.330333	0.2041	5324864.876710
4.333733	0.204	5244701.544661
4.337135	0.2041	5286393.438279
4.340537	0.2041	5424767.542110
4.343937	0.204	5380684.300997
4.347338	0.2041	5222598.774086
4.350740	0.2041	5295437.455975
4.354140	0.204	5394110.139872
4.357542	0.2041	5295313.504210
4.360942	0.204	5389253.953815
4.364343	0.2041	5409557.034941
4.367745	0.2041	5255126.533882
4.371145	0.204	5348825.015856
4.374547	0.2041	5383360.380675
4.377947	0.204	5380407.562178
4.381348	0.2041	5377425.015736
4.384750	0.2041	5216848.400226
4.388150	0.204	5381698.291601
4.391552	0.2041	5461427.848384
4.394952	0.204	5299667.107707
4.398353	0.2041	5382954.150830
4.401755	0.2041	5293327.315462
4.405155	0.204	5186220.289326
4.408557	0.2041	5292434.167810
4.411957	0.204	5262962.693592
4.415358	0.2041	5329660.869771
4.418760	0.2041	5402578.382869
4.422160	0.204	5214462.091322
4.425562	0.2041	5249445.014632
4.428963	0.2041	5428749.786049
4.432363	0.204	5298230.844967
4.435765	0.2041	5232975.299216
4.439165	0.204	5521037.192945
4.442567	0.2041	5539603.752870
4.445968	0.2041	5352173.153445
4.449368	0.204	5350577.962128
4.452770	0.2041	5440210.980631
4.456170	0.204	5480665.145959
4.459572	0.2041	5285586.940798
4.462973	0.2041	5267733.330378
4.466373	0.204	5431471.643427
4.469775	0.2041	5457902.972672
4.473175	0.204	5493321.427960
4.476577	0.2041	5498575.028577
4.479978	0.2041	5497047.912657
4.483378	0.204	5422078.644010
4.486780	0.2041	5390891.952202
4.490182	0.2041	5582274.258608
4.493582	0.204	5689889.174702
4.496983	0.2041	5632943.629318
4.500383	0.204	5630287.813663
4.503785	0.2041	5554105.183484
4.507187	0.2041	5481265.939380
4.510587	0.204	5614147.645592
4.513988	0.2041	5708049.174445
4.517388	0.204	5631526.823254
4.520790	0.2041	5643892.435747
4.524192	0.2041	5736634.044646
4.527592	0.204	5874308.781084
4.530993	0.2041	5916058.304762
4.534393	0.204	5764298.371745
4.537795	0.2041	5671690.511768
4.541197	0.2041	5810598.589758
4.544597	0.204	5965975.898999
4.547998	0.2041	5957796.680866
4.551398	0.204	5925034.730410
4.554800	0.2041	5998341.791126
4.558202	0.2041	5983515.858533
4.561602	0.204	5912731.900250
4.565003	0.2041	5995855.884891
4.568405	0.2041	5775915.702607
4.571805	0.204	5531987.035544
4.575207	0.2041	5641376.221162
4.578607	0.204	5718606.310124
4.582008	0.2041	5579329.600200
4.585410	0.2041	5684752.877679
4.588810	0.204	6050925.737340
4.592212	0.2041	6028254.827014
4.595612	0.204	5870645.261310
4.599013	0.2041	5875487.603290
4.602415	0.2041	5901897.241071
4.605815	0.204	5921640.232447
4.609217	0.2041	5894142.661281
4.612617	0.204	5967950.538849
4.616018	0.2041	6045929.965011
4.619420	0.2041	5997093.662195
4.622820	0.204	5814169.095823
4.626222	0.2041	5806726.798481
4.629623	0.2041	5920510.178219
4.633023	0.204	5825628.049677
4.636425	0.2041	5872380.041901
4.639825	0.204	5799995.185347
4.643227	0.2041	5740035.946965
4.646628	0.2041	5973279.622572
4.650028	0.204	5826964.718557
4.653430	0.2041	5577639.347308
4.656830	0.204	5810689.541815
4.660232	0.2041	5886412.696036
4.663633	0.2041	5740206.748583
4.667033	0.204	5687254.037442
4.670435	0.2041	5662391.057998
4.673835	0.204	5598184.073947
4.677237	0.2041	5586959.333574
4.680638	0.2041	5710866.448240
4.684038	0.204	5666170.490035
4.687440	0.2041	5635136.161145
4.690840	0.204	5599774.492161
4.694242	0.2041	5579319.947413
4.697643	0.2041	5707504.334175
4.701043	0.204	5695008.183274
4.704445	0.2041	5768431.792641
4.707847	0.2041	5873760.192841
4.711247	0.204	5859217.684725
4.714648	0.2041	5850276.815266
4.718048	0.204	5827235.487705
4.721450	0.2041	5872022.564982
4.724852	0.2041	5813880.119837
4.728252	0.204	5675305.716215
4.731653	0.2041	5769579.686580
4.735053	0.204	5871658.984855
4.738455	0.2041	5793748.831306
4.741857	0.2041	5798809.102900
4.745257	0.204	5813874.676708
4.748658	0.2041	5741719.479239
4.752058	0.204	5731858.739849
4.755460	0.2041	5649969.744577
4.758862	0.2041	5550407.226808
4.762262	0.204	5739951.942847
4.765663	0.2041	6028267.366246
4.769065	0.2041	5720202.025700
4.772465	0.204	5542939.557628
4.775867	0.2041	5768453.742220
4.779267	0.204	5580759.450425
4.782668	0.2041	5642251.481403
4.786070	0.2041	5973014.038201
4.789470	0.204	5834901.724893
4.792872	0.2041	5625513.403189
4.796272	0.204	5743489.435790
4.799673	0.2041	5871195.854231
4.803075	0.2041	5852139.356372
4.806475	0.204	5810931.514803
4.809877	0.2041	5738315.648394
4.813277	0.204	5915376.048666
4.816678	0.2041	5945396.649572
4.820080	0.2041	5787971.542445
4.823480	0.204	5822603.810941
4.826882	0.2041	5775677.713368
4.830282	0.204	5941432.691120
4.833683	0.2041	6050744.133286
4.837085	0.2041	5814250.304034
4.840485	0.204	5718127.492476
4.843887	0.2041	5949196.258903
4.847288	0.2041	6056345.929416
4.850688	0.204	5807016.290931
4.854090	0.2041	5737054.972894
4.857490	0.204	5827736.844880
4.860892	0.2041	5808594.729332
4.864293	0.2041	5840080.443470
4.867693	0.204	5922949.271578
4.871095	0.2041	6019686.113460
4.874495	0.204	6030763.018103
4.877897	0.2041	5969397.729202
4.881298	0.2041	5987149.565196
4.884698	0.204	5918003.530039
4.888100	0.2041	5823489.337747
4.891500	0.204	5860746.666952
4.894902	0.2041	5913267.986675
4.898303	0.2041	5874491.163760
4.901703	0.204	5847866.922045
4.905105	0.2041	5939510.136809
4.908507	0.2041	6128409.288233
4.911907	0.204	6092669.141545
4.915308	0.2041	5925820.012275
4.918708	0.204	5840123.101884
4.922110	0.2041	5940807.196989
4.925512	0.2041	5966593.862213
4.928912	0.204	5988492.049226
4.932313	0.2041	6046305.300990
4.935713	0.204	5936297.583927
4.939115	0.2041	5936236.622895
4.942517	0.2041	6045302.833983
4.945917	0.204	6094076.075921
4.949318	0.2041	6063980.108034
4.952718	0.204	5981715.841570
4.956120	0.2041	5921985.234258
4.959522	0.2041	5921238.938861
4.962922	0.204	5985245.993252
4.966323	0.2041	6092053.176216
4.969725	0.2041	6039608.058137
4.973125	0.204	6053900.630199
4.976527	0.2041	6237518.126283
4.979927	0.204	6154772.410836
4.983328	0.2041	5924762.631149
4.986730	0.2041	5959959.742371
4.990130	0.204	6069891.228537
4.993532	0.2041	6033683.474463
4.996932	0.204	6122548.253105
5.000333	0.2041	6235748.634447
5.003735	0.2041	6110050.373712
5.007135	0.204	6028843.943446
5.010537	0.2041	6087071.136697
5.013937	0.204	6116962.236642
5.017338	0.2041	6117255.150211
5.020740	0.2041	6004547.416345
5.024140	0.204	5869310.406876
5.027542	0.2041	5998083.969420
5.030942	0.204	6174832.573929
5.034343	0.2041	6099182.225229
5.037745	0.2041	6137639.321887
5.041145	0.204	6350249.064136
5.044547	0.2041	6279076.474492
5.047948	0.2041	5982490.116906
5.051348	0.204	5898383.224133
5.054750	0.2041	6205900.128256
5.058150	0.204	6333905.083537
5.061552	0.2041	6288862.486303
5.064953	0.2041	6357170.618890
5.068353	0.204	6343308.482468
5.071755	0.2041	6347255.841891
5.075155	0.204	6199730.638575
5.078557	0.2041	5978724.901356
5.081958	0.2041	6041261.944106
5.085358	0.204	6299468.870452
5.088760	0.2041	6276766.026466
5.092160	0.204	6246981.359129
5.095562	0.2041	6420373.068034
5.098963	0.2041	6323848.441074
5.102363	0.204	6176779.128805
5.105765	0.2041	6256197.946449
5.109167	0.2041	6417022.270947
5.112567	0.204	6391299.440921
5.115968	0.2041	6364768.932576
5.119368	0.204	6309658.398425
5.122770	0.2041	6205377.665836
5.126172	0.2041	6321652.379803
5.129572	0.204	6253400.800375
5.132973	0.2041	6169912.922766
5.136373	0.204	6214908.921714
5.139775	0.2041	6313476.080397
5.143177	0.2041	6227978.238874
5.146577	0.204	6214457.915438
5.149978	0.2041	6424522.654957
5.153378	0.204	6160546.288819
5.156780	0.2041	6012543.746462
5.160182	0.2041	6132300.623963
5.163582	0.204	6238429.743555
5.166983	0.2041	6360517.496772
5.170383	0.204	6260046.713168
5.173785	0.2041	6204076.800525
5.177187	0.2041	6309365.996741
5.180587	0.204	6221726.214841
5.183988	0.2041	6153561.851188
5.187390	0.2041	6211000.657921
5.190790	0.204	6343845.060603
5.194192	0.2041	6406104.795435
5.197592	0.204	6236088.312079
5.200993	0.2041	6259240.595327
5.204395	0.2041	6349888.647696
5.207795	0.204	6417488.040908
5.211197	0.2041	6322881.390341
5.214597	0.204	6237701.744565
5.217998	0.2041	6446963.043403
5.221400	0.2041	6431584.607753
5.224800	0.204	6312505.743162
5.228202	0.2041	6351140.219596
5.231602	0.204	6446813.217713
5.235003	0.2041	6218366.071612
5.238405	0.2041	6013748.312252
5.241805	0.204	6320896.804809
5.245207	0.2041	6530678.885409
5.248608	0.2041	6504960.114772
5.252008	0.204	6355045.118384
5.255410	0.2041	6279333.901385
5.258810	0.204	6398756.307513
5.262212	0.2041	6457958.135989
5.265613	0.2041	6457461.079863
5.269013	0.204	6437985.692923
5.272415	0.2041	6320852.147389
5.275815	0.204	6251504.506906
5.279217	0.2041	6417787.812393
5.282618	0.2041	6505517.766616
5.286018	0.204	6452193.295025
5.289420	0.2041	6447919.171824
5.292820	0.204	6401083.426596
5.296222	0.2041	6399923.573411
5.299623	0.2041	6473194.193343
5.303023	0.204	6509851.565995
5.306425	0.2041	6448960.945709
5.309825	0.204	6544045.070597
5.313227	0.2041	6668046.526697
5.316628	0.2041	6556681.995819
5.320028	0.204	6476189.019245
5.323430	0.2041	6473744.253964
5.326832	0.2041	6479923.930864
5.330232	0.204	6493908.788519
5.333633	0.2041	6576199.687438
5.337033	0.204	6790818.099796
5.340435	0.2041	6612697.254887
5.343837	0.2041	6234631.284594
5.347237	0.204	6408515.611960
5.350638	0.2041	6510977.839494
5.354038	0.204	6478015.773057
5.357440	0.2041	6653425.471959
5.360842	0.2041	6616492.054706
5.364242	0.204	6604485.087154
5.367643	0.2041	6730884.622459
5.371043	0.204	6801673.710540
5.374445	0.2041	6725767.318456
5.377847	0.2041	6423571.785287
5.381247	0.204	6216385.287392
5.384648	0.2041	6251705.432099
5.388050	0.2041	6292171.104437
5.391450	0.204	6310738.310472
5.394852	0.2041	6340557.185888
5.398252	0.204	6512883.258391
5.401653	0.2041	6515936.760830
5.405055	0.2041	6324722.389483
5.408455	0.204	6400667.911151
5.411857	0.2041	6410745.058771
5.415257	0.204	6302353.408606
5.418658	0.2041	6388055.157849
5.422060	0.2041	6474676.867702
5.425460	0.204	6357532.598749
5.428862	0.2041	6565353.745430
5.432262	0.204	6631423.080734
5.435663	0.2041	6338193.764566
5.439065	0.2041	6471152.318567
5.442465	0.204	6570005.707118
5.445867	0.2041	6419091.561847
5.449268	0.2041	6505547.619341
5.452668	0.204	6617051.321207
5.456070	0.2041	6503366.115665
5.459470	0.204	6587777.173040
5.462872	0.2041	6536121.973083
5.466273	0.2041	6384123.960263
5.469673	0.204	6542746.178213
5.473075	0.2041	6434298.536053
5.476475	0.204	6340483.927939
5.479877	0.2041	6444392.131798
5.483278	0.2041	6530996.771922
5.486678	0.204	6536290.377638
5.490080	0.2041	6401000.277944
5.493480	0.204	6426387.742369
5.496882	0.2041	6405707.095770
5.500283	0.2041	6387203.850107
5.503683	0.204	6511709.854890
5.507085	0.2041	6421230.447880
5.510485	0.204	6316823.993645
5.513887	0.2041	6386311.139979
5.517288	0.2041	6439904.776976
5.520688	0.204	6537346.710965
5.524090	0.2041	6548620.120908
5.527492	0.2041	6447166.087519
5.530892	0.204	6535109.750850
5.534293	0.2041	6586516.227672
5.537693	0.204	6562874.310133
5.541095	0.2041	6727039.497374
5.544497	0.2041	6716663.176474
5.547897	0.204	6557378.120314
5.551298	0.2041	6495233.122958
5.554698	0.204	6639424.157663
5.558100	0.2041	6834581.923771
5.561502	0.2041	6572090.304077
5.564902	0.204	6507332.241758
5.568303	0.2041	6548499.631957
5.571703	0.204	6542590.934831
5.575105	0.2041	6781229.179292
5.578507	0.2041	6735426.429701
5.581907	0.204	6650707.569567
5.585308	0.2041	6600268.175427
5.588710	0.2041	6738921.463202
5.592110	0.204	6854202.409609
5.595512	0.2041	6507399.042890
5.598912	0.204	6305082.446084
5.602313	0.2041	6527941.318904
5.605715	0.2041	6644403.477108
5.609115	0.204	6590434.342364
5.612517	0.2041	6591982.158618
5.615917	0.204	6612193.217800
5.619318	0.2041	6731924.603727
5.622720	0.2041	6725557.818493
5.626120	0.204	6705934.431539
5.629522	0.2041	6690961.902361
5.632922	0.204	6604232.655935
5.636323	0.2041	6678408.185947
5.639725	0.2041	6890133.561948
5.643125	0.204	6822980.157796
5.646527	0.2041	6618123.560180
5.649927	0.204	6593003.280067
5.653328	0.2041	6698409.190161
5.656730	0.2041	6781709.699716
5.660130	0.204	6684719.551663
5.663532	0.2041	6631914.938492
5.666933	0.2041	6609521.045496
5.670333	0.204	6646102.521468
5.673735	0.2041	6538456.991101
5.677135	0.204	6439484.252007
5.680537	0.2041	6729999.985621
5.683938	0.2041	6808443.456768
5.687338	0.204	6699177.165273
5.690740	0.2041	6734220.090965
5.694140	0.204	6717491.384972
5.697542	0.2041	6647108.416200
5.700943	0.2041	6632663.184958
5.704343	0.204	6669160.258212
5.707745	0.2041	6719898.886218
5.711145	0.204	6768224.567296
5.714547	0.2041	6756286.352870
5.717948	0.2041	6555389.671781
5.721348	0.204	6542340.067550
5.724750	0.2041	6636696.698322
5.728152	0.2041	6440383.520584
5.731552	0.204	6542444.416648
5.734953	0.2041	6651432.203007
5.738353	0.204	6583989.925925
5.741755	0.2041	6751953.792532
5.745157	0.2041	6704535.262312
5.748557	0.204	6569155.069746
5.751958	0.2041	6606707.279499
5.755358	0.204	6777632.313184
5.758760	0.2041	6832217.921592
5.762162	0.2041	6607945.222987
5.765562	0.204	6648226.166672
5.768963	0.2041	6871881.701827
5.772363	0.204	6776150.200766
5.775765	0.2041	6663243.307798
5.779167	0.2041	6645497.952127
5.782567	0.204	6661929.913353
5.785968	0.2041	6851481.041225
5.789368	0.204	6708318.135083
5.792770	0.2041	6520332.082445
5.796172	0.2041	6744776.204137
5.799572	0.204	6727158.007409
5.802973	0.2041	6626098.607205
5.806375	0.2041	6752608.035254
5.809775	0.204	6768558.047614
5.813177	0.2041	6652208.551330
5.816577	0.204	6738560.276690
5.819978	0.2041	6900315.093224
5.823380	0.2041	6873498.076569
5.826780	0.204	6807535.434769
5.830182	0.2041	6737044.844551
5.833582	0.204	6762434.066200
5.836983	0.2041	6745989.598648
5.840385	0.2041	6716501.463816
5.843785	0.204	6593534.543567
5.847187	0.2041	6543042.044333
5.850587	0.204	6699127.513313
5.853988	0.2041	6681368.561446
5.857390	0.2041	6530904.824773
5.860790	0.204	6499525.862941
5.864192	0.2041	6698032.974666
5.867593	0.2041	6823914.890774
5.870993	0.204	6576196.418047
5.874395	0.2041	6547167.101285
5.877795	0.204	6790215.378113
5.881197	0.2041	6774215.059751
5.884598	0.2041	6869573.137508
5.887998	0.204	6748295.338776
5.891400	0.2041	6536438.694568
5.894800	0.204	6796737.527387
5.898202	0.2041	6912671.125657
5.901603	0.2041	6881880.194752
5.905003	0.204	6960718.705641
5.908405	0.2041	6833933.563279
5.911805	0.204	6825524.122946
5.915207	0.2041	6885603.714938
5.918608	0.2041	6818941.762124
5.922008	0.204	6884203.069922
5.925410	0.2041	6882872.163450
5.928810	0.204	6840417.418726
5.932212	0.2041	6849189.707419
5.935613	0.2041	6787790.218034
5.939013	0.204	6712828.355714
5.942415	0.2041	6832196.615360
5.945817	0.2041	6896275.845107
5.949217	0.204	6795493.347735
5.952618	0.2041	6939357.654460
5.956018	0.204	7055928.291430
5.959420	0.2041	6965681.097983
5.962822	0.2041	6812343.896741
5.966222	0.204	6879231.591266
5.969623	0.2041	7022421.247577
5.973023	0.204	6948263.308625
5.976425	0.2041	7070315.286779
5.979827	0.2041	7044781.475162
5.983227	0.204	6912344.078787
5.986628	0.2041	6983690.050670
5.990028	0.204	6932749.437514
5.993430	0.2041	7027725.633630
5.996832	0.2041	7086262.589259
6.000232	0.204	6901086.142938
6.003633	0.2041	7034845.822768
6.007035	0.2041	7180075.566122
6.010435	0.204	6866199.715227
6.013837	0.2041	6748071.753363
6.017237	0.204	6909478.753755
6.020638	0.2041	6937126.733230
6.024040	0.2041	6994885.610493
6.027440	0.204	6990048.375150
6.030842	0.2041	6895115.659674
6.034242	0.204	6797450.860966
6.037643	0.2041	6760414.177424
6.041045	0.2041	7049620.347208
6.044445	0.204	7007197.151213
6.047847	0.2041	6812603.998292
6.051247	0.204	6951583.440744
6.054648	0.2041	6968503.302465
6.058050	0.2041	7036771.223235
6.061450	0.204	7006706.042245
6.064852	0.2041	6959603.793503
6.068253	0.2041	7128026.052076
6.071653	0.204	7149463.794428
6.075055	0.2041	6874307.923208
6.078455	0.204	6847290.999745
6.081857	0.2041	6987831.629927
6.085258	0.2041	6952915.882198
6.088658	0.204	7005290.965086
6.092060	0.2041	6970312.922770
6.095460	0.204	6931772.987941
6.098862	0.2041	6927893.833308
6.102263	0.2041	6960719.144025
6.105663	0.204	6890623.293863
6.109065	0.2041	6917162.515892
6.112465	0.204	7129903.871830
6.115867	0.2041	7135344.914496
6.119268	0.2041	7049356.065098
6.122668	0.204	6901975.934602
6.126070	0.2041	6843337.233061
6.129470	0.204	6935523.778769
6.132872	0.2041	7160127.141565
6.136273	0.2041	7196127.113588
6.139673	0.204	7003317.722954
6.143075	0.2041	6958111.088214
6.146477	0.2041	6933321.959371
6.149877	0.204	6935678.940569
6.153278	0.2041	6955282.716839
6.156678	0.204	6934411.989432
6.160080	0.2041	6994812.389215
6.163482	0.2041	6925865.516442
6.166882	0.204	6765727.695743
6.170283	0.2041	6893914.164928
6.173683	0.204	6947139.042748
6.177085	0.2041	6851243.712881
6.180487	0.2041	7068075.915977
6.183887	0.204	7078841.441641
6.187288	0.2041	6942452.175128
6.190688	0.204	6961085.221570
6.194090	0.2041	6911385.480960
6.197492	0.2041	6923531.071378
6.200892	0.204	6995236.375353
6.204293	0.2041	7120868.891615
6.207695	0.2041	7001581.408259
6.211095	0.204	6925423.002887
6.214497	0.2041	6960525.712656
6.217897	0.204	6878784.077908
6.221298	0.2041	7000340.163777
6.224700	0.2041	7112057.995255
6.228100	0.204	7131486.252223
6.231502	0.2041	6937153.315276
6.234902	0.204	6862063.879922
6.238303	0.2041	7023998.972732
6.241705	0.2041	7043637.337535
6.245105	0.204	6995575.803141
6.248507	0.2041	7069536.564486
6.251907	0.204	7060694.986232
6.255308	0.2041	6855390.865002
6.258710	0.2041	6948471.684240
6.262110	0.204	7003743.322450
6.265512	0.2041	6974837.953983
6.268912	0.204	7100257.228405
6.272313	0.2041	6986560.332580
6.275715	0.2041	6804199.650541
6.279115	0.204	7038884.175580
6.282517	0.2041	7173965.594326
6.285918	0.2041	6984423.703284
6.289318	0.204	6904539.909365
6.292720	0.2041	6926911.278186
6.296120	0.204	6974626.416142
6.299522	0.2041	7004659.039678
6.302923	0.2041	6933062.960273
6.306323	0.204	6906090.852212
6.309725	0.2041	7037029.769681
6.313125	0.204	7260418.377572
6.316527	0.2041	7249761.724125
6.319928	0.2041	6949743.524891
6.323328	0.204	6911933.323807
6.326730	0.2041	7080637.872963
6.330130	0.204	7164076.950740
6.333532	0.2041	7115536.756196
6.336933	0.2041	7089998.013181
6.340333	0.204	7048189.297707
6.343735	0.2041	6983807.263733
6.347135	0.204	7010093.261892
6.350537	0.2041	6888546.285417
6.353938	0.2041	6831932.185234
6.357338	0.204	6963410.134448
6.360740	0.2041	7007386.492779
6.364142	0.2041	6956587.781987
6.367542	0.204	6954739.442702
6.370943	0.2041	6895063.362875
6.374343	0.204	7095538.920730
6.377745	0.2041	7160686.247775
6.381147	0.2041	6927255.317556
6.384547	0.204	6912275.941327
6.387948	0.2041	6998955.801765
6.391348	0.204	7118108.315257
6.394750	0.2041	7134516.346147
6.398152	0.2041	7125626.419268
6.401552	0.204	7120370.375995
6.404953	0.2041	7114142.537452
6.408353	0.204	7048366.897390
6.411755	0.2041	7007440.446699
6.415157	0.2041	7099943.667167
6.418557	0.204	6947321.037729
6.421958	0.2041	7067440.376020
6.425360	0.2041	7244929.461937
6.428760	0.204	7131423.194019
6.432162	0.2041	7175264.586558
6.435562	0.204	7205973.337457
6.438963	0.2041	7317883.309693
6.442365	0.2041	7282791.860997
6.445765	0.204	7095664.374990
6.449167	0.2041	7090971.783341
6.452567	0.204	7160914.452034
6.455968	0.2041	7225624.164504
6.459370	0.2041	7084428.740902
6.462770	0.204	7133802.480497
6.466172	0.2041	7238383.255440
6.469572	0.204	7199072.348881
6.472973	0.2041	7263860.467497
6.476375	0.2041	7167627.981336
6.479775	0.204	7004137.228081
6.483177	0.2041	7064070.357265
6.486577	0.204	7131038.650361
6.489978	0.2041	7114470.956963
6.493380	0.2041	7249299.814667
6.496780	0.204	7304534.513427
6.500182	0.2041	7114158.062049
6.503583	0.2041	6944684.921395
6.506983	0.204	6999291.218270
6.510385	0.2041	6918298.843289
6.513785	0.204	6881403.349740
6.517187	0.2041	7144236.375245
6.520588	0.2041	7166577.671124
6.523988	0.204	7121102.185791
6.527390	0.2041	7037993.974029
6.530790	0.204	6920804.892261
6.534192	0.2041	7182473.484953
6.537593	0.2041	7412617.660093
6.540993	0.204	7130190.023385
6.544395	0.2041	6941768.855535
6.547795	0.204	6995186.079225
6.551197	0.2041	6994128.071856
6.554598	0.2041	7137644.286357
6.557998	0.204	7124508.771003
6.561400	0.2041	7054710.683886
6.564802	0.2041	7131595.765539
6.568202	0.204	7044784.465001
6.571603	0.2041	6923801.456034
6.575003	0.204	6909257.073297
6.578405	0.2041	6990788.489585
6.581807	0.2041	7096215.200033
6.585207	0.204	7184968.732517
6.588608	0.2041	7142466.839342
6.592008	0.204	6899120.955716
6.595410	0.2041	6937388.737481
6.598812	0.2041	7013834.542148
6.602212	0.204	7018171.243100
6.605613	0.2041	7130025.363394
6.609013	0.204	6980738.188526
6.612415	0.2041	7145668.376266
6.615817	0.2041	7290598.356959
6.619217	0.204	7005113.684702
6.622618	0.2041	6985312.663933
6.626018	0.204	7175285.353244
6.629420	0.2041	7201319.684153
6.632822	0.2041	7130011.735809
6.636222	0.204	7042813.122403
6.639623	0.2041	7058300.653688
6.643025	0.2041	7077592.825584
6.646425	0.204	7074310.950706
6.649827	0.2041	7145208.488827
6.653227	0.204	7032657.865540
6.656628	0.2041	7044416.243265
6.660030	0.2041	7149460.228510
6.663430	0.204	7085423.307749
6.666832	0.2041	7002278.516347
6.670232	0.204	6960023.396070
6.673633	0.2041	6994229.638841
6.677035	0.2041	7111638.529382
6.680435	0.204	7241504.229757
6.683837	0.2041	7100122.903861
6.687237	0.204	6872511.015933
6.690638	0.2041	6979962.702822
6.694040	0.2041	7139583.649106
6.697440	0.204	7125617.408350
6.700842	0.2041	7073200.782607
6.704243	0.2041	7041378.275711
6.707643	0.204	7096431.134357
6.711045	0.2041	7115420.674350
6.714445	0.204	7203812.223222
6.717847	0.2041	7303316.500325
6.721248	0.2041	7100091.907194
6.724648	0.204	7094800.869339
6.728050	0.2041	7195194.068037
6.731450	0.204	7148745.529053
6.734852	0.2041	7182751.923874
6.738253	0.2041	7118187.407915
6.741653	0.204	7116920.512848
6.745055	0.2041	7216553.912546
6.748455	0.204	7254244.054106
6.751857	0.2041	7345956.156765
6.755258	0.2041	7119182.551294
6.758658	0.204	6914385.932153
6.762060	0.2041	7016976.042936
6.765462	0.2041	7025040.316073
6.768862	0.204	7135789.185078
6.772263	0.2041	7266584.515866
6.775663	0.204	7148330.759602
6.779065	0.2041	7075995.664552
6.782467	0.2041	7207077.405082
6.785867	0.204	7284715.778725
6.789268	0.2041	7216243.694566
6.792668	0.204	7043706.738015
6.796070	0.2041	7044251.522205
6.799472	0.2041	7052943.346239
6.802872	0.204	6999128.824117
6.806273	0.2041	7115029.610827
6.809673	0.204	7024124.718574
6.813075	0.2041	6935800.584151
6.816477	0.2041	7122543.512725
6.819877	0.204	7010765.778373
6.823278	0.2041	6988305.250363
6.826678	0.204	7067526.684325
6.830080	0.2041	7002458.391059
6.833482	0.2041	7152173.346653
6.836882	0.204	7228371.753529
6.840283	0.2041	7221588.930867
6.843685	0.2041	7253941.660842
6.847085	0.204	7271847.397331
6.850487	0.2041	7295000.988305
6.853887	0.204	7241627.560585
6.857288	0.2041	7027313.544307
6.860690	0.2041	7043403.744715
6.864090	0.204	7312969.239761
6.867492	0.2041	7234446.823035
6.870892	0.204	7068974.994707
6.874293	0.2041	7256623.544998
6.877695	0.2041	7534348.452916
6.881095	0.204	7561912.055102
6.884497	0.2041	7530714.361401
6.887897	0.204	7297959.347307
6.891298	0.2041	7143287.620052
6.894700	0.2041	7331265.624878
6.898100	0.204	7330163.616381
6.901502	0.2041	7438641.009387
6.904903	0.2041	7580025.802036
6.908303	0.204	7520152.799325
6.911705	0.2041	7485030.328419
6.915105	0.204	7562444.290111
6.918507	0.2041	7589059.771966
6.921908	0.2041	7500247.819602
6.925308	0.204	7707654.601888
6.928710	0.2041	7575970.215443
6.932110	0.204	7407869.571552
6.935512	0.2041	7501810.581361
6.938913	0.2041	7459221.847134
6.942313	0.204	7534502.017881
6.945715	0.2041	7536734.470074
6.949115	0.204	7503632.738249
6.952517	0.2041	7517446.792521
6.955918	0.2041	7546569.127476
6.959318	0.204	7597049.211469
6.962720	0.2041	7650938.572439
6.966120	0.204	7638460.569148
6.969522	0.2041	7543424.560189
6.972923	0.2041	7567120.001460
6.976323	0.204	7571857.204681
6.979725	0.2041	7715503.793020
6.983127	0.2041	7739303.687430
6.986527	0.204	7572341.936293
6.989928	0.2041	7519141.827212
6.993328	0.204	7564091.656438
