URL	chrom://isq7ci2006004/ChromeleonLocal/Instrument Data/Aspuru-Guzik/Stanley/2024_12_16_005c-H.seq/936.smp/MSDevice.xraw
Channel	TIC

Injection Information:
Data Vault	ChromeleonLocal
Sequence	2024_12_16_005c-H
Name	005c-H1F_conc
Number	6
Position	4
Comment	
Processing Method	Basic Quantitative
Instrument Method	2024_12_16_005c-H - Copy
Type	Unknown
Status	Finished
Inject Time	12/16/2024 3:33:19 PM -05:00
Volume (µl)	3.0000
Dilution Factor	1.0000
Weight	1.0000

Raw Data Information:
Data Points	267
Mass Min. (m/z)	150.000000
Mass Max. (m/z)	399.968075
Retention Time (min)	3.442668
Mass Resolution	0.500000
Tolerance Unit	Amu
Scan Number	278
Scan Type	+ c EI Full ms [150.00-400.00]
Is Centroid Scan	True
Base Peak Mass	206.994675
Base Peak Intensity	833,760.875000
Total Ion Count	6,169,371.274548

Raw Data:
Mass (m/z)	Value (counts)
150.2	3,624.234863
151.1	27,670.277344
152.1	7,689.500488
153.0	26,562.308594
153.8	6,803.102539
154.6	2,542.027344
155.3	799.134155
156.1	3,428.910156
156.6	1,595.261963
157.3	3,132.939697
157.9	8,006.373047
159.0	512,551.437500
160.0	41,373.250000
161.1	196,677.968750
162.3	162,701.140625
163.2	15,068.742188
164.2	13,854.314453
164.9	28,420.210938
166.1	10,422.293945
167.2	6,624.016602
168.3	1,525.411865
169.0	1,867.859619
169.7	38.503807
171.1	7,944.593262
171.9	16,227.570313
172.9	42,247.769531
174.0	6,452.357422
175.0	20,241.380859
175.7	4,326.687988
176.9	48,228.242188
177.9	24,218.433594
179.0	25,830.078125
179.9	7,801.385254
180.9	15,644.589844
181.9	3,617.571777
182.9	2,531.629395
183.4	55.339321
185.0	81,373.328125
186.0	9,179.398438
187.0	23,811.656250
188.7	15,117.879883
189.6	7,422.654297
190.9	165,369.562500
191.9	35,077.617188
193.0	100,288.984375
194.1	20,515.187500
195.0	33,637.988281
196.0	15,789.033203
197.0	29,039.105469
198.1	4,183.215332
198.9	10,499.071289
199.6	854.719238
200.6	4,250.487793
201.2	1,927.660034
202.8	10,989.096680
204.1	7,841.900391
205.0	19,302.666016
205.8	4,651.408691
207.0	833,760.875000
208.0	157,015.687500
209.1	113,626.523438
210.2	12,616.742188
211.0	5,533.587402
212.1	1,400.154907
213.1	2,938.008301
214.3	2,456.238281
215.2	2,936.239502
216.1	2,507.494629
216.8	1,749.660645
217.8	3,381.552979
218.6	4,144.538574
219.2	6,630.597656
219.9	1,388.456421
221.0	112,667.914063
222.1	43,213.664063
222.9	19,788.343750
223.7	5,293.739258
224.2	425.959869
225.2	5,929.308105
226.0	1,945.258911
226.9	2,208.354492
227.8	680.865784
228.7	2,441.612305
229.3	3,235.070557
230.1	63.452705
231.2	1,270.835449
232.2	25.546066
233.1	1,325.366577
234.2	5,991.078613
235.1	14,684.803711
235.9	4,853.852539
236.9	18,240.257813
237.8	2,501.980469
239.1	15,377.118164
239.7	1,059.856689
240.2	1,864.619995
240.9	2.491394
242.0	18.733223
243.3	1,677.685181
244.5	639.582825
245.1	109.499687
245.7	354.732117
247.1	8,748.808594
247.9	4,912.402344
249.0	52,399.113281
249.9	20,422.945313
250.9	35,278.144531
251.8	3,227.785889
253.1	41,535.187500
254.0	12,329.601563
255.1	11,354.616211
256.0	5,391.812012
257.2	4,669.820313
258.1	795.160889
258.9	1,852.925537
259.7	5,320.964355
260.7	3,757.706055
261.5	7,007.143066
262.1	7,496.755859
263.1	35,762.625000
264.1	137,761.734375
265.0	98,348.171875
265.8	10,158.486328
266.9	74,185.828125
267.9	39,106.285156
269.0	17,679.412109
269.9	2,357.595947
270.9	9,034.580078
271.6	4,631.377441
272.4	4,803.512695
273.1	1,544.459106
273.7	1.659153
274.6	2,519.233154
275.3	1,202.604858
276.2	275.740265
276.9	3,873.507080
278.0	2,495.064209
279.1	8,464.006836
280.0	2,771.202881
281.0	533,390.812500
282.0	139,643.656250
283.0	101,776.390625
283.8	31,743.792969
284.8	16,588.384766
285.8	4,341.771484
286.9	2,862.950684
287.7	0.000096
288.3	2,204.056152
288.8	0.344115
289.4	0.003432
289.9	0.000077
291.1	944.372681
292.1	1,511.381714
292.9	7,149.790527
294.0	1,401.471924
295.0	16,091.123047
296.0	6,760.810059
296.9	8,145.245605
297.8	10,438.803711
298.9	5,175.667969
300.0	345.108185
301.0	628.924744
301.7	754.880432
302.3	0.066686
303.5	0.004525
304.3	2,193.735352
306.2	3,113.704102
307.0	546.786987
308.3	64.180069
309.0	1,538.053833
311.0	10,579.958984
311.9	7,695.562500
312.9	4,451.274414
314.2	5,252.628906
315.1	26,375.947266
315.8	7,894.421875
316.4	1,832.008179
317.4	929.091187
318.1	19.644867
319.3	10.424603
319.8	1,187.412964
320.4	0.851764
320.9	213.755966
321.6	0.081325
322.8	5,150.069824
324.7	35,532.285156
325.4	11,380.571289
326.8	102,983.507813
327.9	30,464.441406
328.9	29,980.236328
329.7	4,042.674805
331.0	11,266.523438
332.2	5,694.096191
333.2	14,829.134766
334.1	116,411.195313
335.2	19,862.966797
336.3	3,993.058105
337.6	3.077181
338.2	133.561569
339.0	10,678.315430
339.9	7,397.011230
340.4	2,490.249023
341.0	139,827.187500
342.0	43,763.484375
342.9	45,874.460938
343.8	10,374.695313
344.5	6,573.015625
345.2	7,523.274414
346.1	3,146.888184
347.0	388.470978
347.9	268.894653
349.1	42.152584
350.2	6.289080
351.0	421.287903
351.8	5,971.047852
353.0	5,718.348145
353.8	7,401.268066
355.0	147,933.250000
356.0	62,713.769531
357.0	61,437.410156
357.9	13,836.884766
358.6	2,746.510254
359.2	9,851.547852
360.1	4,144.055176
361.1	38.804668
361.8	0.000952
362.8	2,592.970703
363.8	1,104.023926
365.0	634.593567
365.5	973.101440
367.0	3,778.735596
367.7	965.687927
369.1	12,423.992188
370.0	3,305.460205
370.9	2,988.887939
371.7	409.951569
373.0	12,057.608398
373.9	147.337936
374.8	1,195.492554
375.8	365.060883
376.9	18,057.259766
377.5	7,267.361328
378.4	3,003.390137
379.1	3,209.020264
380.0	491.016449
380.8	4,091.544922
382.4	689.480042
383.1	17,315.355469
384.0	1,352.555908
384.9	14,199.317383
385.7	3,682.925781
386.7	6,846.123047
387.3	2,225.148438
388.0	2,180.912598
388.8	14,391.721680
389.8	7,881.008789
390.4	3,218.481934
391.2	4,105.585938
392.0	4,929.285156
393.0	4,712.555664
394.0	1,251.672119
395.1	284.900635
396.0	0.316541
397.3	2,641.647705
398.6	8,879.493164
399.2	11,488.706055
399.8	7,010.875977
