URL	chrom://isq7ci2006004/ChromeleonLocal/Instrument Data/Aspuru-Guzik/Stanley/2024_12_16_005c-H.seq/177.smp/MSDevice.xraw
Channel	TIC

Injection Information:
Data Vault	ChromeleonLocal
Sequence	2024_12_16_005c-H
Name	PS_Dimer_conc
Number	5
Position	3
Comment	
Processing Method	Basic Quantitative
Instrument Method	2024_12_16_005c-H - Copy
Type	Unknown
Status	Finished
Inject Time	12/16/2024 3:19:27 PM -05:00
Volume (µl)	5.0000
Dilution Factor	1.0000
Weight	1.0000

Raw Data Information:
Data Points	267
Mass Min. (m/z)	150.000000
Mass Max. (m/z)	399.968075
Retention Time (min)	3.782855
Mass Resolution	0.500000
Tolerance Unit	Amu
Scan Number	378
Scan Type	+ c EI Full ms [150.00-400.00]
Is Centroid Scan	True
Base Peak Mass	266.134674
Base Peak Intensity	7175986.500000
Total Ion Count	32525129.015537

Raw Data:
Mass (m/z)	Value (counts)
150.3	23720.449219
151.1	43265.187500
152.0	277954.812500
153.1	103608.218750
154.1	24269.935547
155.0	22804.882813
156.0	33116.050781
157.0	49032.136719
158.1	12950.358398
159.1	145865.187500
160.1	120518.593750
161.1	2671454.250000
162.1	6910131.000000
163.1	865570.812500
164.1	116776.195313
165.0	419281.750000
166.0	140113.140625
167.0	238083.812500
168.1	42924.140625
169.0	4526.911133
170.1	6796.841797
171.1	4838.149902
171.9	6678.296875
173.0	39803.339844
174.1	75379.156250
175.1	592574.250000
176.2	172892.265625
177.1	78426.468750
178.0	431738.031250
179.0	253066.890625
180.1	57780.906250
181.0	65464.222656
182.1	11825.537109
182.8	5349.177734
184.1	1895.984009
184.9	1656.873169
185.9	3692.409668
186.7	4088.924316
187.2	20266.000000
188.2	119863.890625
189.1	147957.453125
190.0	66092.945313
191.0	273357.656250
192.1	70147.328125
193.1	356293.218750
194.1	191353.703125
195.1	222274.437500
196.1	1554794.375000
197.1	304321.906250
198.1	23917.833984
199.0	6362.725098
200.1	7326.928711
200.9	3193.707275
201.8	6201.197266
203.1	30690.765625
204.1	3843.377930
205.0	44335.210938
205.9	10005.612305
207.0	1238405.750000
208.1	283597.843750
209.1	238281.625000
210.0	43392.933594
211.0	17252.447266
211.9	758.141418
212.4	5.097091
213.7	563.632874
214.9	3573.747314
216.4	3987.341064
217.1	673.579651
218.0	6545.190918
218.6	6140.735840
219.2	5412.716797
219.8	4528.581543
221.0	174088.609375
222.1	54199.878906
223.0	29867.199219
223.9	4835.408203
224.9	6824.300293
225.5	2952.621338
226.2	1015.214111
227.0	1489.387451
228.0	6679.146973
230.2	14.300842
231.1	724.903931
232.5	3083.949951
233.5	3538.647949
234.2	997.276978
235.0	13590.809570
235.9	6905.571777
236.6	9777.031250
237.6	15972.151367
238.3	1218.310425
238.9	11769.768555
240.1	803.986816
240.7	2717.269287
241.5	323.796478
242.6	876.252014
243.2	7.501945
244.2	3096.584473
246.0	510.343536
247.1	7360.478516
247.7	1161.683472
248.3	456.368713
248.9	58718.339844
250.3	31359.376953
251.0	41930.613281
251.9	10486.009766
253.0	73557.937500
254.0	23756.269531
255.0	12770.123047
256.0	8026.832520
256.8	15827.471680
257.8	3111.960449
259.0	1803.001953
260.1	2224.206055
260.7	80.111801
261.2	2267.039551
262.9	4975.127441
264.0	23675.111328
265.0	114965.781250
266.1	7175986.500000
267.1	1732927.125000
268.1	155662.828125
269.0	49191.070313
270.0	13378.098633
271.0	21589.556641
271.8	238.270355
272.5	24.175089
273.1	2230.511475
274.1	818.885864
275.3	2025.814697
276.0	1264.745972
276.9	5332.186035
277.5	1243.812012
278.9	18777.240234
279.4	2686.847168
280.0	10659.310547
281.0	742107.187500
282.0	196131.796875
282.9	134790.796875
283.8	35401.675781
284.5	2782.670898
285.3	9858.217773
286.3	2128.544189
287.1	2315.581787
287.8	308.786743
288.9	397.872894
289.9	4.528323
290.7	710.089722
291.6	126.231598
292.9	10508.011719
293.9	5901.463867
294.5	6969.809082
295.0	53989.183594
296.0	4842.433594
296.9	12971.521484
297.4	3109.916260
298.0	1793.812500
299.0	3322.948730
299.5	810.912537
300.1	3020.990967
301.0	3551.889160
301.7	2334.333496
303.0	4791.914551
303.6	101.645332
305.1	194.280426
306.4	995.128479
307.4	1053.798462
308.3	514.820251
309.2	4655.429688
310.7	8272.457031
311.5	5851.024902
312.8	20704.619141
313.5	3788.031250
314.0	2150.150635
315.0	62263.855469
316.0	13749.733398
316.8	2514.211182
317.5	619.850159
318.9	1006.828125
319.5	63.978550
320.2	1051.247070
321.4	2.977384
322.1	53.871552
322.8	14107.664063
323.5	4025.850586
324.1	3184.028076
325.0	67291.539063
325.9	21827.167969
326.9	164539.937500
327.9	51117.140625
329.0	40412.062500
330.0	12082.693359
331.0	22669.398438
332.0	3674.337891
333.2	2704.894043
334.0	2142.308105
334.7	0.566564
336.3	1497.866821
337.3	4961.675781
338.5	219.795456
339.0	18776.642578
340.0	11155.486328
340.9	207336.093750
342.0	88847.351563
343.0	89739.226563
343.8	13832.268555
345.0	20736.972656
346.0	19502.275391
346.9	7373.772461
348.1	1328.041260
349.7	126.484016
351.0	493.858398
352.0	568.105530
353.0	5829.957520
353.8	4511.287109
354.4	9453.541992
355.0	306067.468750
356.0	107878.007813
357.0	56817.011719
358.1	13959.179688
358.6	6141.061523
359.4	5476.007324
360.0	8743.014648
360.7	43.224777
361.3	1179.726440
362.0	408.687286
362.9	2985.199463
364.2	2715.617432
364.9	62.978474
366.1	0.347013
367.0	8415.146484
367.9	6354.794922
369.1	14714.987305
369.9	1133.140259
370.5	2007.862915
371.2	8898.540039
372.9	15318.878906
374.0	2295.483154
375.0	6318.213867
376.8	37623.273438
377.8	12155.837891
378.9	12921.203125
380.1	2251.184570
381.0	297.065155
382.1	4559.064453
382.9	21319.820313
383.8	12175.513672
384.8	17825.125000
385.5	8497.419922
386.1	8123.863281
386.9	5781.753418
388.0	8083.911621
389.0	26673.181641
390.0	8028.316406
390.8	5301.041504
391.8	10386.038086
392.5	1674.480957
393.4	85.148361
393.9	15.640937
394.5	20.863119
395.4	18.529383
396.3	128.299454
397.2	2076.557129
397.9	7248.263672
398.9	41895.250000
399.8	15300.200195
