URL	chrom://isq7ci2006004/ChromeleonLocal/Instrument Data/Aspuru-Guzik/Stanley/2024_12_16_005c-H.seq/306.smp/MSDevice.xraw
Channel	TIC

Injection Information:
Data Vault	ChromeleonLocal
Sequence	2024_12_16_005c-H
Name	005c-H3F_conc
Number	7
Position	5
Comment	
Processing Method	Basic Quantitative
Instrument Method	2024_12_16_005c-H - Copy
Type	Unknown
Status	Finished
Inject Time	12/16/2024 3:47:11 PM -05:00
Volume (µl)	3.0000
Dilution Factor	1.0000
Weight	1.0000

Raw Data Information:
Data Points	268
Mass Min. (m/z)	150.000000
Mass Max. (m/z)	399.968075
Retention Time (min)	3.653433
Mass Resolution	0.500000
Tolerance Unit	Amu
Scan Number	340
Scan Type	+ c EI Full ms [150.00-400.00]
Is Centroid Scan	True
Base Peak Mass	159.013535
Base Peak Intensity	1,712,771.750000
Total Ion Count	9,733,224.085076

Raw Data:
Mass (m/z)	Value (counts)
150.4	19,326.960938
151.1	47,994.003906
152.1	25,531.449219
153.0	74,682.468750
153.9	17,961.679688
155.0	6,890.795898
156.0	19,595.480469
156.8	13,077.330078
157.7	20,306.726563
159.0	1,712,771.750000
160.1	170,767.312500
161.1	709,360.875000
162.2	391,994.468750
163.1	68,561.726563
164.0	19,051.689453
165.1	62,152.164063
166.1	27,744.896484
167.1	17,432.583984
168.2	8,344.749023
169.0	3,929.805664
170.0	939.462463
170.9	11,136.293945
172.0	42,376.914063
173.0	30,048.619141
173.9	3,078.197510
175.0	43,392.769531
176.2	17,649.351563
177.1	37,525.351563
178.0	34,716.050781
179.0	18,666.644531
180.0	3,244.194092
181.0	12,963.788086
181.5	477.062653
183.0	23,491.974609
184.1	19,239.878906
185.1	683,855.875000
186.1	74,861.585938
187.1	21,622.869141
188.5	14,504.700195
189.2	24,712.759766
190.1	7,407.117676
191.0	115,931.882813
192.0	34,489.441406
193.0	85,266.960938
194.0	19,244.683594
195.0	15,148.024414
196.0	9,284.423828
197.0	33,635.640625
198.2	7,432.454102
199.3	11,673.587891
199.9	231.360580
200.8	7,185.748047
202.1	11,673.487305
203.2	14,505.708984
204.3	4,076.990723
205.1	17,198.982422
207.0	730,103.937500
208.0	151,013.062500
209.0	88,916.968750
210.0	15,513.844727
210.7	9,380.368164
211.3	2,261.915771
212.1	3,837.286865
213.4	2,188.658936
214.4	7,111.224609
215.1	10,847.842773
215.7	1,097.436523
216.9	2,109.037354
218.0	14,518.649414
219.2	4,936.263672
220.1	11,248.121094
221.1	122,938.242188
222.2	25,518.144531
223.1	30,729.888672
224.0	6,588.154785
224.9	3,415.206299
225.5	2,473.556641
226.1	306.006775
227.1	11,267.605469
228.4	3,208.079102
229.1	4,952.647949
230.1	182.488525
231.2	2,748.902588
231.9	1,704.707764
232.9	6,919.893555
233.7	2,782.509033
235.1	22,199.839844
235.9	5,651.095215
237.1	16,351.777344
238.1	5,965.608887
239.2	7,456.293457
239.8	5.054330
240.7	6,219.275391
241.7	2,468.355469
242.9	19,678.707031
243.9	6,809.798828
244.4	182.284012
245.1	4,418.640137
246.0	10,982.301758
247.0	2,913.052002
247.9	1,386.938721
249.0	31,899.716797
250.1	12,139.142578
251.0	31,337.255859
252.1	17,373.417969
253.0	44,517.894531
254.0	19,209.443359
254.9	11,848.138672
256.1	6,437.232910
256.9	364.399628
257.7	767.523010
259.2	6,239.009277
259.9	1,734.787354
260.8	8,362.521484
261.3	1,312.965210
262.1	21,518.238281
263.1	81,812.921875
264.1	525,600.562500
265.1	119,296.546875
266.0	16,617.589844
267.0	85,465.710938
268.0	25,423.970703
268.9	7,741.178223
270.1	2,593.426514
271.2	5,545.705566
272.0	2,037.444092
272.6	42.595196
273.3	58.880848
274.5	0.000355
275.0	2,298.661865
275.9	857.036743
276.6	4,812.483398
277.3	1,337.714844
278.0	1,444.731201
279.0	7,458.266602
279.6	3,863.107422
280.2	1,803.675659
281.0	411,174.687500
282.0	100,935.203125
283.0	92,147.210938
284.2	8,726.197266
284.9	2,435.984619
285.6	201.746750
286.7	635.212952
287.2	1,293.893555
288.2	0.456517
288.8	3.372571
289.5	5,361.707031
290.1	0.004503
290.7	109.636505
291.2	364.724243
292.2	1,000.153381
293.0	6,327.567871
293.9	3,160.386230
295.0	24,828.384766
296.0	11,685.995117
296.9	8,219.251953
297.9	99.655464
299.2	928.852478
300.3	1,598.604370
301.4	1.345536
302.3	1,080.480347
303.0	3,690.310547
304.1	170.910416
304.8	2,069.970215
305.8	22.274401
306.8	2,202.273682
307.5	0.456888
308.1	2,336.175293
309.0	3,294.430176
309.8	1,677.407471
310.3	870.236633
311.1	6,033.848145
312.0	2,258.953857
313.0	9,496.776367
314.3	4,040.390869
315.2	105,708.148438
316.2	27,456.320313
317.1	5,443.439941
317.9	2,638.245117
318.8	571.257751
319.4	0.052023
320.8	1,694.530396
322.6	6,618.672852
323.2	7,034.039063
324.0	4,377.778320
324.9	50,795.957031
326.0	14,641.234375
326.9	87,170.015625
327.8	27,425.685547
329.0	17,927.787109
330.2	3,799.929443
331.0	9,479.919922
332.0	8,074.480469
332.9	9,474.589844
333.5	5,265.530273
334.1	448,029.718750
335.2	84,756.406250
336.1	12,184.236328
337.1	1,196.961426
337.8	108.656288
338.7	5,779.696777
339.3	2,801.508545
340.0	5,116.323242
341.0	124,300.531250
341.9	46,180.871094
342.9	32,699.486328
344.0	13,019.418945
344.7	4,052.903809
346.0	4,059.839111
346.7	2,732.005859
348.3	257.372833
349.3	131.065384
350.5	1.838775
351.1	0.248532
352.0	8.964020
352.7	3,128.568115
353.7	3,770.068604
355.0	153,014.265625
356.1	55,261.269531
357.0	36,394.984375
358.0	6,785.807129
359.0	2,877.480225
359.9	3,202.845947
360.6	1,705.795532
361.3	0.000000
361.9	0.154768
362.9	68.246841
364.2	0.629571
364.8	0.000059
366.0	24.407099
366.7	2,449.438965
367.4	1,515.586792
368.1	96.126961
369.1	11,746.309570
370.3	3,608.458740
370.9	1,023.024292
373.0	4,369.565918
373.8	946.633911
374.3	858.109741
375.1	1,287.496094
375.9	179.413651
376.6	5,589.576172
377.8	4,439.227051
378.7	0.020617
379.4	1.444289
380.2	177.637436
380.9	4.038131
382.1	921.051575
382.9	3,786.936035
384.2	4,631.428223
385.1	7,908.189941
386.1	4,129.279297
386.9	6,550.029785
388.1	2,072.239258
389.1	12,290.543945
389.8	1,376.186768
391.2	1,589.731934
391.7	498.585571
392.9	2,257.778564
394.1	1.525086
394.9	0.000734
395.7	0.002745
396.4	89.715652
397.2	294.424652
397.9	379.125885
398.9	17,061.484375
399.8	4,305.066406
