URL	chrom://isq7ci2006004/ChromeleonLocal/Instrument Data/Aspuru-Guzik/Stanley/2024_12_16_005c-H.seq/936.smp/MS_F1_[366.0-366.3].channel/MS_F1_[366.0-366.3].chm
Channel	MS_F1_[366.0-366.3]

Injection Information:
Data Vault	ChromeleonLocal
Sequence	2024_12_16_005c-H
Name	005c-H1F_conc
Number	6
Position	4
Comment	
Processing Method	Basic Quantitative
Instrument Method	2024_12_16_005c-H - Copy
Type	Unknown
Status	Finished
Inject Time	12/16/2024 3:33:19 PM -05:00
Volume (µl)	3.0000
Dilution Factor	1.0000
Weight	1.0000

Chromatogram Data Information:
Time Min. (min)	2.500587
Time Max. (min)	6.993328
Data Points	1322
Detector	MSDevice
Generating Data System	Chromeleon 7.3 Build 60919 (5efd55c28726aa174740e3ad3b435409b51aa6a1)
Exporting Data System	Chromeleon 7.3.0.0
Operator	aspuruguzik
Signal Quantity	Intensity
Signal Unit	counts
Signal Min.	0.000000
Signal Max.	371094.781250
Channel	MS_F1_[366.0-366.3]
Driver Name	Thermo.MassSpectrometer
Channel Type	Evaluation
Min. Step (s)	0.204
Max. Step (s)	0.2041
Average Step (s)	0.20406094

Signal Parameter Information:
Signal Info	

Chromatogram Data:
Time (min)	Step (s)	Value (counts)
2.500587	n.a.	0.000000
2.503987	0.204	0.000000
2.507388	0.2041	0.000000
2.510790	0.2041	0.388617
2.514190	0.204	70.462357
2.517592	0.2041	0.000000
2.520992	0.204	0.000000
2.524393	0.2041	0.000000
2.527795	0.2041	0.000000
2.531195	0.204	0.000000
2.534597	0.2041	0.000000
2.537997	0.204	0.000000
2.541398	0.2041	6.841109
2.544800	0.2041	0.000000
2.548200	0.204	0.000000
2.551602	0.2041	0.000000
2.555002	0.204	0.000000
2.558403	0.2041	0.000000
2.561805	0.2041	0.000000
2.565205	0.204	0.000000
2.568607	0.2041	0.000000
2.572008	0.2041	59.329498
2.575408	0.204	0.000000
2.578810	0.2041	0.000000
2.582210	0.204	0.000000
2.585612	0.2041	7.251864
2.589013	0.2041	1554.546631
2.592413	0.204	1767.529175
2.595815	0.2041	0.000000
2.599215	0.204	0.000000
2.602617	0.2041	187.214310
2.606018	0.2041	0.000000
2.609418	0.204	0.000000
2.612820	0.2041	0.000000
2.616220	0.204	8.486808
2.619622	0.2041	0.000000
2.623023	0.2041	0.000000
2.626423	0.204	138.448166
2.629825	0.2041	156.166534
2.633225	0.204	0.289049
2.636627	0.2041	0.000000
2.640028	0.2041	0.000000
2.643428	0.204	168.079651
2.646830	0.2041	121.718925
2.650232	0.2041	1444.582520
2.653632	0.204	2569.304443
2.657033	0.2041	722.165894
2.660433	0.204	0.000000
2.663835	0.2041	0.000000
2.667237	0.2041	0.000000
2.670637	0.204	0.000000
2.674038	0.2041	0.000000
2.677438	0.204	517.951416
2.680840	0.2041	529.079834
2.684242	0.2041	0.000000
2.687642	0.204	0.000000
2.691043	0.2041	0.000000
2.694443	0.204	51.047138
2.697845	0.2041	143.911728
2.701247	0.2041	0.000000
2.704647	0.204	62.977032
2.708048	0.2041	5.874207
2.711450	0.2041	4.964768
2.714850	0.204	0.000000
2.718252	0.2041	0.000000
2.721652	0.204	2.310703
2.725053	0.2041	846.679321
2.728455	0.2041	1014.141235
2.731855	0.204	0.000000
2.735257	0.2041	0.000000
2.738657	0.204	94.993286
2.742058	0.2041	0.000000
2.745460	0.2041	0.000000
2.748860	0.204	0.000000
2.752262	0.2041	0.000000
2.755662	0.204	0.000000
2.759063	0.2041	0.000000
2.762465	0.2041	0.000000
2.765865	0.204	0.000000
2.769267	0.2041	0.000000
2.772667	0.204	0.000000
2.776068	0.2041	0.000000
2.779470	0.2041	0.000000
2.782870	0.204	0.000000
2.786272	0.2041	0.000000
2.789673	0.2041	0.000000
2.793073	0.204	1.405911
2.796475	0.2041	0.000000
2.799875	0.204	0.000000
2.803277	0.2041	0.000000
2.806678	0.2041	0.000000
2.810078	0.204	0.138789
2.813480	0.2041	0.000000
2.816880	0.204	0.000000
2.820282	0.2041	0.000000
2.823683	0.2041	1753.863647
2.827083	0.204	1971.708496
2.830485	0.2041	8.639846
2.833885	0.204	0.000000
2.837287	0.2041	293.689972
2.840688	0.2041	0.000000
2.844088	0.204	100.821144
2.847490	0.2041	0.000000
2.850892	0.2041	55.097248
2.854292	0.204	0.000000
2.857693	0.2041	0.000000
2.861093	0.204	0.000000
2.864495	0.2041	0.000000
2.867897	0.2041	0.000000
2.871297	0.204	0.000000
2.874698	0.2041	0.473393
2.878098	0.204	0.000000
2.881500	0.2041	0.000000
2.884902	0.2041	0.000000
2.888302	0.204	0.000000
2.891703	0.2041	0.016312
2.895103	0.204	135.193573
2.898505	0.2041	154.209839
2.901907	0.2041	0.000000
2.905307	0.204	0.000000
2.908708	0.2041	0.000000
2.912110	0.2041	649.228149
2.915510	0.204	1295.719849
2.918912	0.2041	629.709045
2.922312	0.204	0.000000
2.925713	0.2041	1539.539673
2.929115	0.2041	1606.547852
2.932515	0.204	0.000000
2.935917	0.2041	0.000000
2.939317	0.204	166.532547
2.942718	0.2041	0.000000
2.946120	0.2041	0.000000
2.949520	0.204	0.000000
2.952922	0.2041	7.667740
2.956322	0.204	0.000000
2.959723	0.2041	0.000000
2.963125	0.2041	1.239130
2.966525	0.204	0.000000
2.969927	0.2041	0.365562
2.973327	0.204	0.000000
2.976728	0.2041	0.032760
2.980130	0.2041	0.000000
2.983530	0.204	0.000000
2.986932	0.2041	0.008681
2.990333	0.2041	0.000000
2.993733	0.204	0.002109
2.997135	0.2041	0.000000
3.000535	0.204	0.000000
3.003937	0.2041	0.000000
3.007338	0.2041	0.000000
3.010738	0.204	0.000058
3.014140	0.2041	0.000000
3.017540	0.204	158.913239
3.020942	0.2041	1110.904785
3.024343	0.2041	1104.100098
3.027743	0.204	0.000000
3.031145	0.2041	0.000000
3.034545	0.204	0.000000
3.037947	0.2041	0.000000
3.041348	0.2041	1569.066528
3.044748	0.204	1828.060181
3.048150	0.2041	0.000000
3.051552	0.2041	0.000000
3.054952	0.204	191.712967
3.058353	0.2041	0.000000
3.061753	0.204	68.544495
3.065155	0.2041	0.000000
3.068557	0.2041	9.344268
3.071957	0.204	0.000000
3.075358	0.2041	0.000000
3.078758	0.204	1.863264
3.082160	0.2041	0.000000
3.085562	0.2041	0.411123
3.088962	0.204	0.000000
3.092363	0.2041	0.000000
3.095763	0.204	0.000000
3.099165	0.2041	0.000000
3.102567	0.2041	0.000000
3.105967	0.204	2877.105713
3.109368	0.2041	3264.907227
3.112768	0.204	0.000000
3.116170	0.2041	0.000000
3.119572	0.2041	328.219025
3.122972	0.204	0.000000
3.126373	0.2041	0.000000
3.129775	0.2041	0.000000
3.133175	0.204	0.000000
3.136577	0.2041	0.000000
3.139977	0.204	0.000000
3.143378	0.2041	0.000000
3.146780	0.2041	0.000000
3.150180	0.204	1068.244751
3.153582	0.2041	2673.961182
3.156982	0.204	1428.815186
3.160383	0.2041	0.000000
3.163785	0.2041	112.375549
3.167185	0.204	127.604568
3.170587	0.2041	17.332581
3.173987	0.204	0.000000
3.177388	0.2041	0.000000
3.180790	0.2041	0.000000
3.184190	0.204	0.000000
3.187592	0.2041	0.000000
3.190993	0.2041	0.000000
3.194393	0.204	0.000000
3.197795	0.2041	0.000000
3.201195	0.204	0.000000
3.204597	0.2041	0.000000
3.207998	0.2041	0.000000
3.211398	0.204	0.004227
3.214800	0.2041	0.019410
3.218200	0.204	0.000000
3.221602	0.2041	0.000000
3.225003	0.2041	0.000000
3.228403	0.204	0.000000
3.231805	0.2041	0.000000
3.235205	0.204	821.604431
3.238607	0.2041	937.133667
3.242008	0.2041	0.000000
3.245408	0.204	28.113050
3.248810	0.2041	89.534317
3.252210	0.204	0.000000
3.255612	0.2041	45.047283
3.259013	0.2041	0.000000
3.262413	0.204	0.000000
3.265815	0.2041	0.000000
3.269217	0.2041	0.000000
3.272617	0.204	10.379632
3.276018	0.2041	2267.062500
3.279418	0.204	2583.188721
3.282820	0.2041	0.000000
3.286222	0.2041	0.000000
3.289622	0.204	0.000000
3.293023	0.2041	0.000000
3.296423	0.204	264.152618
3.299825	0.2041	0.000000
3.303227	0.2041	0.000000
3.306627	0.204	0.000000
3.310028	0.2041	0.000000
3.313428	0.204	286.671143
3.316830	0.2041	575.447205
3.320232	0.2041	0.000000
3.323632	0.204	0.000000
3.327033	0.2041	716.512390
3.330435	0.2041	845.350708
3.333835	0.204	0.000000
3.337237	0.2041	0.000000
3.340637	0.204	0.000000
3.344038	0.2041	3.585779
3.347440	0.2041	33.702629
3.350840	0.204	3.977535
3.354242	0.2041	3.524391
3.357642	0.204	0.000000
3.361043	0.2041	0.000000
3.364445	0.2041	0.000000
3.367845	0.204	0.030143
3.371247	0.2041	0.188745
3.374647	0.204	0.000000
3.378048	0.2041	0.000000
3.381450	0.2041	0.000000
3.384850	0.204	0.000030
3.388252	0.2041	0.000000
3.391653	0.2041	0.000000
3.395053	0.204	0.001032
3.398455	0.2041	0.000000
3.401855	0.204	0.000000
3.405257	0.2041	0.000000
3.408658	0.2041	0.000000
3.412058	0.204	0.000000
3.415460	0.2041	0.000000
3.418860	0.204	0.000000
3.422262	0.2041	0.000000
3.425663	0.2041	0.000000
3.429063	0.204	0.000000
3.432465	0.2041	0.000000
3.435865	0.204	0.000000
3.439267	0.2041	0.000000
3.442668	0.2041	0.000000
3.446068	0.204	0.000000
3.449470	0.2041	0.000000
3.452870	0.204	1441.809204
3.456272	0.2041	306.149536
3.459673	0.2041	0.000000
3.463073	0.204	0.000000
3.466475	0.2041	32.406303
3.469877	0.2041	0.000000
3.473277	0.204	474.699310
3.476678	0.2041	2269.178955
3.480078	0.204	1900.708374
3.483480	0.2041	0.000000
3.486882	0.2041	0.000000
3.490282	0.204	286.444916
3.493683	0.2041	66.722755
3.497083	0.204	47.255093
3.500485	0.2041	0.000000
3.503887	0.2041	26.412951
3.507287	0.204	0.000000
3.510688	0.2041	0.000000
3.514088	0.204	0.000000
3.517490	0.2041	0.000000
3.520892	0.2041	702.235840
3.524292	0.204	815.273743
3.527693	0.2041	0.000000
3.531095	0.2041	0.000000
3.534495	0.204	84.936440
3.537897	0.2041	0.000000
3.541297	0.204	607.582092
3.544698	0.2041	0.000000
3.548100	0.2041	0.000000
3.551500	0.204	1.986918
3.554902	0.2041	45.544403
3.558302	0.204	0.000000
3.561703	0.2041	0.000000
3.565105	0.2041	0.000000
3.568505	0.204	3.116992
3.571907	0.2041	0.000000
3.575307	0.204	0.000000
3.578708	0.2041	0.706412
3.582110	0.2041	1499.011963
3.585510	0.204	0.000000
3.588912	0.2041	0.000000
3.592312	0.204	0.000000
3.595713	0.2041	177.396774
3.599115	0.2041	0.614725
3.602515	0.204	0.000000
3.605917	0.2041	0.000000
3.609318	0.2041	0.000000
3.612718	0.204	0.000000
3.616120	0.2041	0.000000
3.619520	0.204	0.715858
3.622922	0.2041	0.000000
3.626323	0.2041	0.000000
3.629723	0.204	1.060424
3.633125	0.2041	0.410325
3.636525	0.204	0.000000
3.639927	0.2041	0.000000
3.643328	0.2041	0.000000
3.646728	0.204	0.091606
3.650130	0.2041	0.000000
3.653530	0.204	0.001940
3.656932	0.2041	0.000000
3.660333	0.2041	2695.835449
3.663733	0.204	0.000000
3.667135	0.2041	825.371582
3.670537	0.2041	0.000000
3.673937	0.204	0.000000
3.677338	0.2041	0.000000
3.680738	0.204	0.000000
3.684140	0.2041	0.000000
3.687542	0.2041	41.940979
3.690942	0.204	0.000000
3.694343	0.2041	0.000000
3.697743	0.204	0.000000
3.701145	0.2041	0.000000
3.704547	0.2041	4.663975
3.707947	0.204	0.000000
3.711348	0.2041	0.000000
3.714748	0.204	0.510942
3.718150	0.2041	0.262539
3.721552	0.2041	0.000000
3.724952	0.204	0.171747
3.728353	0.2041	0.000000
3.731753	0.204	0.000000
3.735155	0.2041	0.000000
3.738557	0.2041	0.000000
3.741957	0.204	0.000000
3.745358	0.2041	0.000000
3.748760	0.2041	366.769318
3.752160	0.204	0.000000
3.755562	0.2041	860.532837
3.758962	0.204	0.000000
3.762363	0.2041	0.000000
3.765765	0.2041	49289.691406
3.769165	0.204	95535.656250
3.772567	0.2041	134959.062500
3.775967	0.204	140817.234375
3.779368	0.2041	218351.437500
3.782770	0.2041	270938.250000
3.786170	0.204	329397.937500
3.789572	0.2041	331425.781250
3.792972	0.204	282568.375000
3.796373	0.2041	189769.390625
3.799775	0.2041	88730.335938
3.803175	0.204	65700.125000
3.806577	0.2041	23789.457031
3.809978	0.2041	13329.029297
3.813378	0.204	19077.164063
3.816780	0.2041	0.000000
3.820180	0.204	3173.182129
3.823582	0.2041	1741.404785
3.826983	0.2041	0.000000
3.830383	0.204	0.000000
3.833785	0.2041	1221.021484
3.837185	0.204	0.000000
3.840587	0.2041	1940.318481
3.843988	0.2041	2157.972900
3.847388	0.204	0.000000
3.850790	0.2041	0.000000
3.854190	0.204	0.000000
3.857592	0.2041	0.000000
3.860993	0.2041	0.000000
3.864393	0.204	0.000000
3.867795	0.2041	0.000000
3.871197	0.2041	0.000000
3.874597	0.204	0.000000
3.877998	0.2041	0.000000
3.881398	0.204	0.000000
3.884800	0.2041	0.000000
3.888202	0.2041	0.000000
3.891602	0.204	0.000000
3.895003	0.2041	0.307603
3.898403	0.204	2056.251465
3.901805	0.2041	0.000000
3.905207	0.2041	0.000000
3.908607	0.204	0.000000
3.912008	0.2041	0.000000
3.915408	0.204	0.000000
3.918810	0.2041	91.506424
3.922212	0.2041	0.000000
3.925612	0.204	11.494260
3.929013	0.2041	1241.642578
3.932413	0.204	1455.319458
3.935815	0.2041	0.000000
3.939217	0.2041	0.000000
3.942617	0.204	0.000000
3.946018	0.2041	0.000000
3.949420	0.2041	7457.358398
3.952820	0.204	0.000000
3.956222	0.2041	30565.583984
3.959622	0.204	79222.328125
3.963023	0.2041	138214.828125
3.966425	0.2041	183129.390625
3.969825	0.204	236635.453125
3.973227	0.2041	313763.781250
3.976627	0.204	371094.781250
3.980028	0.2041	361613.093750
3.983430	0.2041	287796.062500
3.986830	0.204	217065.937500
3.990232	0.2041	0.000000
3.993632	0.204	108769.125000
3.997033	0.2041	59247.144531
4.000435	0.2041	0.000000
4.003835	0.204	8028.258789
4.007237	0.2041	0.000000
4.010638	0.2041	0.000000
4.014038	0.204	0.000000
4.017440	0.2041	0.000000
4.020840	0.204	0.000000
4.024242	0.2041	0.000000
4.027643	0.2041	3070.693848
4.031043	0.204	3033.575439
4.034445	0.2041	101.857979
4.037845	0.204	0.000000
4.041247	0.2041	343.283722
4.044648	0.2041	0.000000
4.048048	0.204	116.694786
4.051450	0.2041	0.000000
4.054850	0.204	0.000000
4.058252	0.2041	2972.379883
4.061653	0.2041	1662.982788
4.065053	0.204	0.000000
4.068455	0.2041	0.000000
4.071855	0.204	0.000000
4.075257	0.2041	2546.330322
4.078658	0.2041	1551.457153
4.082058	0.204	0.000000
4.085460	0.2041	0.000000
4.088862	0.2041	199.767044
4.092262	0.204	0.000000
4.095663	0.2041	0.000000
4.099063	0.204	2902.500488
4.102465	0.2041	1774.220825
4.105867	0.2041	0.000000
4.109267	0.204	0.000000
4.112668	0.2041	154.183990
4.116068	0.204	0.000000
4.119470	0.2041	0.000000
4.122872	0.2041	0.000000
4.126272	0.204	6.987982
4.129673	0.2041	1310.376953
4.133073	0.204	1363.716675
4.136475	0.2041	0.000000
4.139877	0.2041	0.000000
4.143277	0.204	0.000000
4.146678	0.2041	0.000000
4.150080	0.2041	0.000000
4.153480	0.204	0.000000
4.156882	0.2041	5403.629883
4.160282	0.204	0.000000
4.163683	0.2041	1515.209229
4.167085	0.2041	0.000000
4.170485	0.204	0.000000
4.173887	0.2041	0.000000
4.177287	0.204	0.000000
4.180688	0.2041	0.000000
4.184090	0.2041	1740.188354
4.187490	0.204	0.000000
4.190892	0.2041	0.000000
4.194292	0.204	55.815163
4.197693	0.2041	279.727386
4.201095	0.2041	0.000000
4.204495	0.204	71.320023
4.207897	0.2041	1288.124756
4.211298	0.2041	1482.369263
4.214698	0.204	0.000000
4.218100	0.2041	0.000000
4.221500	0.204	127.262947
4.224902	0.2041	0.000000
4.228303	0.2041	627.744202
4.231703	0.204	664.998657
4.235105	0.2041	5.229277
4.238505	0.204	0.000000
4.241907	0.2041	0.000000
4.245308	0.2041	1455.312500
4.248708	0.204	1258.601074
4.252110	0.2041	0.032886
4.255510	0.204	0.000000
4.258912	0.2041	130.732040
4.262313	0.2041	0.000000
4.265713	0.204	48.650864
4.269115	0.2041	0.000000
4.272515	0.204	0.000000
4.275917	0.2041	0.000175
4.279318	0.2041	0.000000
4.282718	0.204	0.977268
4.286120	0.2041	3942.660156
4.289522	0.2041	4497.004395
4.292922	0.204	0.000000
4.296323	0.2041	0.000000
4.299723	0.204	479.116852
4.303125	0.2041	0.000000
4.306527	0.2041	175.467178
4.309927	0.204	919.143555
4.313328	0.2041	1669.044189
4.316728	0.204	0.000000
4.320130	0.2041	0.000000
4.323532	0.2041	0.000000
4.326932	0.204	0.000000
4.330333	0.2041	41.457447
4.333733	0.204	0.000000
4.337135	0.2041	5.109379
4.340537	0.2041	0.000000
4.343937	0.204	0.000000
4.347338	0.2041	0.000000
4.350740	0.2041	1503.085693
4.354140	0.204	0.000000
4.357542	0.2041	3090.497803
4.360942	0.204	2656.316162
4.364343	0.2041	0.000000
4.367745	0.2041	0.000000
4.371145	0.204	249.467239
4.374547	0.2041	0.000000
4.377947	0.204	97.092163
4.381348	0.2041	0.000000
4.384750	0.2041	0.000000
4.388150	0.204	0.000000
4.391552	0.2041	0.000000
4.394952	0.204	0.000000
4.398353	0.2041	0.000000
4.401755	0.2041	0.000000
4.405155	0.204	48.132813
4.408557	0.2041	60.217201
4.411957	0.204	0.000000
4.415358	0.2041	0.000000
4.418760	0.2041	6.670996
4.422160	0.204	0.000000
4.425562	0.2041	0.000000
4.428963	0.2041	0.000000
4.432363	0.204	0.000000
4.435765	0.2041	0.000000
4.439165	0.204	0.000000
4.442567	0.2041	0.000000
4.445968	0.2041	1139.228149
4.449368	0.204	974.378906
4.452770	0.2041	0.000000
4.456170	0.204	0.000000
4.459572	0.2041	179.241913
4.462973	0.2041	0.000000
4.466373	0.204	0.000000
4.469775	0.2041	31.179083
4.473175	0.204	0.000000
4.476577	0.2041	0.000000
4.479978	0.2041	0.000000
4.483378	0.204	0.000000
4.486780	0.2041	0.000000
4.490182	0.2041	0.000000
4.493582	0.204	0.000000
4.496983	0.2041	0.000000
4.500383	0.204	0.000000
4.503785	0.2041	0.000000
4.507187	0.2041	0.000000
4.510587	0.204	0.000000
4.513988	0.2041	0.000000
4.517388	0.204	0.000000
4.520790	0.2041	0.000000
4.524192	0.2041	0.000000
4.527592	0.204	0.000000
4.530993	0.2041	0.000000
4.534393	0.204	0.000000
4.537795	0.2041	0.000000
4.541197	0.2041	0.001825
4.544597	0.204	0.000000
4.547998	0.2041	0.000000
4.551398	0.204	0.000000
4.554800	0.2041	0.000000
4.558202	0.2041	0.000000
4.561602	0.204	1.420978
4.565003	0.2041	0.000000
4.568405	0.2041	0.000000
4.571805	0.204	0.000000
4.575207	0.2041	0.000000
4.578607	0.204	0.000000
4.582008	0.2041	0.000000
4.585410	0.2041	0.000000
4.588810	0.204	0.000000
4.592212	0.2041	1373.263306
4.595612	0.204	0.000000
4.599013	0.2041	0.000000
4.602415	0.2041	0.000000
4.605815	0.204	0.000000
4.609217	0.2041	0.000000
4.612617	0.204	0.000000
4.616018	0.2041	0.000000
4.619420	0.2041	150.326706
4.622820	0.204	0.000000
4.626222	0.2041	0.000000
4.629623	0.2041	0.000000
4.633023	0.204	559.516174
4.636425	0.2041	669.406250
4.639825	0.204	656.405945
4.643227	0.2041	0.000000
4.646628	0.2041	0.000000
4.650028	0.204	0.000000
4.653430	0.2041	0.000000
4.656830	0.204	0.000000
4.660232	0.2041	0.000000
4.663633	0.2041	0.000000
4.667033	0.204	0.000000
4.670435	0.2041	0.000000
4.673835	0.204	54.486393
4.677237	0.2041	48.742012
4.680638	0.2041	0.000000
4.684038	0.204	0.493708
4.687440	0.2041	0.000000
4.690840	0.204	0.352351
4.694242	0.2041	0.000000
4.697643	0.2041	0.000000
4.701043	0.204	0.238667
4.704445	0.2041	0.000000
4.707847	0.2041	0.003767
4.711247	0.204	0.000000
4.714648	0.2041	0.000000
4.718048	0.204	0.000000
4.721450	0.2041	0.000000
4.724852	0.2041	1.136944
4.728252	0.204	0.000000
4.731653	0.2041	0.000000
4.735053	0.204	1007.219421
4.738455	0.2041	0.000000
4.741857	0.2041	0.000000
4.745257	0.204	0.000000
4.748658	0.2041	0.000000
4.752058	0.204	0.000000
4.755460	0.2041	0.000000
4.758862	0.2041	0.000000
4.762262	0.204	0.000000
4.765663	0.2041	0.000000
4.769065	0.2041	0.000000
4.772465	0.204	0.000000
4.775867	0.2041	0.000000
4.779267	0.204	0.000000
4.782668	0.2041	1364.440552
4.786070	0.2041	0.000000
4.789470	0.204	0.000000
4.792872	0.2041	628.785400
4.796272	0.204	576.092529
4.799673	0.2041	31.340082
4.803075	0.2041	0.000000
4.806475	0.204	307.642792
4.809877	0.2041	0.000000
4.813277	0.204	10.575974
4.816678	0.2041	0.000000
4.820080	0.2041	32.906956
4.823480	0.204	0.000000
4.826882	0.2041	0.000000
4.830282	0.204	0.000000
4.833683	0.2041	0.000000
4.837085	0.2041	31.800270
4.840485	0.204	0.000000
4.843887	0.2041	0.000000
4.847288	0.2041	0.000000
4.850688	0.204	0.000000
4.854090	0.2041	0.000000
4.857490	0.204	0.000000
4.860892	0.2041	0.000000
4.864293	0.2041	0.000000
4.867693	0.204	16.039724
4.871095	0.2041	0.000000
4.874495	0.204	0.000000
4.877897	0.2041	0.000000
4.881298	0.2041	0.000000
4.884698	0.204	0.746636
4.888100	0.2041	0.000000
4.891500	0.204	0.000000
4.894902	0.2041	1071.697021
4.898303	0.2041	1295.263428
4.901703	0.204	0.000000
4.905105	0.2041	0.000000
4.908507	0.2041	134.054382
4.911907	0.204	0.000000
4.915308	0.2041	49.963406
4.918708	0.204	0.000000
4.922110	0.2041	6.126427
4.925512	0.2041	0.000000
4.928912	0.204	0.000000
4.932313	0.2041	0.000000
4.935713	0.204	0.000000
4.939115	0.2041	0.000000
4.942517	0.2041	0.000000
4.945917	0.204	0.000000
4.949318	0.2041	0.000000
4.952718	0.204	0.000000
4.956120	0.2041	0.000000
4.959522	0.2041	0.000000
4.962922	0.204	0.000000
4.966323	0.2041	0.000000
4.969725	0.2041	0.000000
4.973125	0.204	0.000000
4.976527	0.2041	0.000000
4.979927	0.204	0.000000
4.983328	0.2041	0.000000
4.986730	0.2041	76.127602
4.990130	0.204	86.835114
4.993532	0.2041	33.999577
4.996932	0.204	86.181808
5.000333	0.2041	0.016725
5.003735	0.2041	0.000000
5.007135	0.204	0.000000
5.010537	0.2041	0.000000
5.013937	0.204	4.130205
5.017338	0.2041	0.000000
5.020740	0.2041	0.000000
5.024140	0.204	0.000000
5.027542	0.2041	0.000000
5.030942	0.204	0.000000
5.034343	0.2041	0.000000
5.037745	0.2041	3426.264160
5.041145	0.204	2974.023438
5.044547	0.2041	0.000000
5.047948	0.2041	523.420593
5.051348	0.204	743.196533
5.054750	0.2041	25.204426
5.058150	0.204	0.000000
5.061552	0.2041	0.000000
5.064953	0.2041	769.722900
5.068353	0.204	0.000000
5.071755	0.2041	0.000000
5.075155	0.204	0.000000
5.078557	0.2041	0.000000
5.081958	0.2041	0.000000
5.085358	0.204	21.833889
5.088760	0.2041	320.697540
5.092160	0.204	56.093582
5.095562	0.2041	1366.498657
5.098963	0.2041	1508.199707
5.102363	0.204	0.000000
5.105765	0.2041	0.000000
5.109167	0.2041	158.970215
5.112567	0.204	0.000000
5.115968	0.2041	0.000000
5.119368	0.204	0.000000
5.122770	0.2041	0.000000
5.126172	0.2041	0.000000
5.129572	0.204	1.417619
5.132973	0.2041	0.000000
5.136373	0.204	0.000000
5.139775	0.2041	0.000000
5.143177	0.2041	0.000000
5.146577	0.204	0.000000
5.149978	0.2041	0.000000
5.153378	0.204	0.000000
5.156780	0.2041	0.000000
5.160182	0.2041	0.000000
5.163582	0.204	0.000000
5.166983	0.2041	0.000000
5.170383	0.204	0.000000
5.173785	0.2041	0.000000
5.177187	0.2041	0.000000
5.180587	0.204	0.000000
5.183988	0.2041	0.000000
5.187390	0.2041	0.000000
5.190790	0.204	0.000000
5.194192	0.2041	0.000000
5.197592	0.204	0.000000
5.200993	0.2041	0.000000
5.204395	0.2041	0.000000
5.207795	0.204	0.000000
5.211197	0.2041	0.000000
5.214597	0.204	0.000000
5.217998	0.2041	0.000000
5.221400	0.2041	0.000000
5.224800	0.204	0.000000
5.228202	0.2041	0.000000
5.231602	0.204	1657.402222
5.235003	0.2041	3231.788330
5.238405	0.2041	1395.374390
5.241805	0.204	0.000000
5.245207	0.2041	189.222214
5.248608	0.2041	0.000000
5.252008	0.204	0.000000
5.255410	0.2041	2880.946289
5.258810	0.204	3505.338135
5.262212	0.2041	0.000000
5.265613	0.2041	0.000000
5.269013	0.204	835.280701
5.272415	0.2041	0.000000
5.275815	0.204	0.000000
5.279217	0.2041	0.000000
5.282618	0.2041	4744.276367
5.286018	0.204	3244.545898
5.289420	0.2041	0.000000
5.292820	0.204	0.000000
5.296222	0.2041	291.785248
5.299623	0.2041	0.000000
5.303023	0.204	107.931511
5.306425	0.2041	0.000000
5.309825	0.204	1261.355469
5.313227	0.2041	0.000000
5.316628	0.2041	0.000000
5.320028	0.204	0.000000
5.323430	0.2041	212.418716
5.326832	0.2041	0.000000
5.330232	0.204	0.000000
5.333633	0.2041	0.000000
5.337033	0.204	0.000000
5.340435	0.2041	0.000000
5.343837	0.2041	0.000000
5.347237	0.204	0.000000
5.350638	0.2041	0.000000
5.354038	0.204	0.000000
5.357440	0.2041	1056.097412
5.360842	0.2041	1334.101929
5.364242	0.204	0.000000
5.367643	0.2041	0.000000
5.371043	0.204	0.000000
5.374445	0.2041	0.000000
5.377847	0.2041	0.000000
5.381247	0.204	0.000000
5.384648	0.2041	0.000000
5.388050	0.2041	3391.300293
5.391450	0.204	1056.217163
5.394852	0.2041	0.000000
5.398252	0.204	0.000000
5.401653	0.2041	0.000000
5.405055	0.2041	0.000000
5.408455	0.204	0.000000
5.411857	0.2041	0.000000
5.415257	0.204	0.000000
5.418658	0.2041	177.580551
5.422060	0.2041	0.000000
5.425460	0.204	352.658905
5.428862	0.2041	456.960571
5.432262	0.204	0.000000
5.435663	0.2041	0.000000
5.439065	0.2041	0.000000
5.442465	0.204	0.000000
5.445867	0.2041	16.415915
5.449268	0.2041	0.000000
5.452668	0.204	0.000000
5.456070	0.2041	0.000000
5.459470	0.204	0.000000
5.462872	0.2041	0.000000
5.466273	0.2041	634.520691
5.469673	0.204	699.330627
5.473075	0.2041	0.000000
5.476475	0.204	0.000000
5.479877	0.2041	565.575378
5.483278	0.2041	0.000000
5.486678	0.204	28.026453
5.490080	0.2041	0.000000
5.493480	0.204	0.000000
5.496882	0.2041	0.933515
5.500283	0.2041	2338.583496
5.503683	0.204	2669.000244
5.507085	0.2041	0.000000
5.510485	0.204	112.268066
5.513887	0.2041	0.000000
5.517288	0.2041	0.000000
5.520688	0.204	0.000000
5.524090	0.2041	0.000000
5.527492	0.2041	0.000000
5.530892	0.204	5.327837
5.534293	0.2041	0.000000
5.537693	0.204	0.788143
5.541095	0.2041	5.372959
5.544497	0.2041	0.000000
5.547897	0.204	0.000000
5.551298	0.2041	0.000000
5.554698	0.204	0.000000
5.558100	0.2041	0.229673
5.561502	0.2041	0.000000
5.564902	0.204	0.000000
5.568303	0.2041	0.000000
5.571703	0.204	0.000000
5.575105	0.2041	0.000000
5.578507	0.2041	0.000000
5.581907	0.204	0.000000
5.585308	0.2041	0.000000
5.588710	0.2041	0.000000
5.592110	0.204	0.000000
5.595512	0.2041	0.000000
5.598912	0.204	0.000000
5.602313	0.2041	0.000000
5.605715	0.2041	0.007751
5.609115	0.204	0.000000
5.612517	0.2041	0.000165
5.615917	0.204	0.000000
5.619318	0.2041	0.000000
5.622720	0.2041	0.000000
5.626120	0.204	0.000000
5.629522	0.2041	0.000000
5.632922	0.204	0.000000
5.636323	0.2041	3.318176
5.639725	0.2041	0.000000
5.643125	0.204	2735.369629
5.646527	0.2041	2706.935303
5.649927	0.204	0.000000
5.653328	0.2041	0.000000
5.656730	0.2041	234.927155
5.660130	0.204	0.000000
5.663532	0.2041	0.000000
5.666933	0.2041	0.000000
5.670333	0.204	0.000000
5.673735	0.2041	1311.954834
5.677135	0.204	0.000000
5.680537	0.2041	0.000000
5.683938	0.2041	138.486526
5.687338	0.204	0.000000
5.690740	0.2041	51.074677
5.694140	0.204	0.000000
5.697542	0.2041	576.594055
5.700943	0.2041	0.000000
5.704343	0.204	0.000000
5.707745	0.2041	0.000000
5.711145	0.204	69.312042
5.714547	0.2041	0.298501
5.717948	0.2041	26.230331
5.721348	0.204	0.000000
5.724750	0.2041	0.000000
5.728152	0.2041	0.000000
5.731552	0.204	293.841766
5.734953	0.2041	403.635193
5.738353	0.204	0.000000
5.741755	0.2041	0.000000
5.745157	0.2041	0.000000
5.748557	0.204	0.000000
5.751958	0.2041	0.000000
5.755358	0.204	0.000000
5.758760	0.2041	1.778291
5.762162	0.2041	0.000000
5.765562	0.204	155.472397
5.768963	0.2041	137.370331
5.772363	0.204	0.000000
5.775765	0.2041	0.000000
5.779167	0.2041	0.000000
5.782567	0.204	0.000000
5.785968	0.2041	5.024814
5.789368	0.204	0.000000
5.792770	0.2041	0.000000
5.796172	0.2041	0.000000
5.799572	0.204	0.000000
5.802973	0.2041	0.000000
5.806375	0.2041	0.000000
5.809775	0.204	0.000000
5.813177	0.2041	63.703667
5.816577	0.204	954.252075
5.819978	0.2041	1049.325806
5.823380	0.2041	28.118324
5.826780	0.204	0.000000
5.830182	0.2041	111.310074
5.833582	0.204	0.480744
5.836983	0.2041	0.000000
5.840385	0.2041	30.798357
5.843785	0.204	0.820628
5.847187	0.2041	0.000000
5.850587	0.204	0.000000
5.853988	0.2041	0.000000
5.857390	0.2041	1.670303
5.860790	0.204	0.000000
5.864192	0.2041	0.144655
5.867593	0.2041	0.000000
5.870993	0.204	0.000000
5.874395	0.2041	0.026636
5.877795	0.204	0.000000
5.881197	0.2041	0.000000
5.884598	0.2041	0.000000
5.887998	0.204	0.000583
5.891400	0.2041	0.000000
5.894800	0.204	0.000000
5.898202	0.2041	0.000191
5.901603	0.2041	0.000000
5.905003	0.204	0.000000
5.908405	0.2041	0.000000
5.911805	0.204	65.303238
5.915207	0.2041	0.000000
5.918608	0.2041	0.000000
5.922008	0.204	7.313420
5.925410	0.2041	0.000000
5.928810	0.204	2.604497
5.932212	0.2041	0.000000
5.935613	0.2041	0.000000
5.939013	0.204	0.000000
5.942415	0.2041	0.000000
5.945817	0.2041	0.000000
5.949217	0.204	0.000000
5.952618	0.2041	0.000000
5.956018	0.204	0.000000
5.959420	0.2041	0.853616
5.962822	0.2041	0.000000
5.966222	0.204	0.000000
5.969623	0.2041	0.000000
5.973023	0.204	0.000000
5.976425	0.2041	0.000000
5.979827	0.2041	0.000000
5.983227	0.204	0.375922
5.986628	0.2041	0.000000
5.990028	0.204	0.000000
5.993430	0.2041	0.000000
5.996832	0.2041	0.000000
6.000232	0.204	0.000000
6.003633	0.2041	0.000000
6.007035	0.2041	0.000000
6.010435	0.204	0.000000
6.013837	0.2041	0.000000
6.017237	0.204	0.000000
6.020638	0.2041	0.000000
6.024040	0.2041	0.000000
6.027440	0.204	0.000000
6.030842	0.2041	0.000000
6.034242	0.204	2864.166504
6.037643	0.2041	0.000000
6.041045	0.2041	0.000000
6.044445	0.204	8910.947266
6.047847	0.2041	3324.441162
6.051247	0.204	0.000000
6.054648	0.2041	0.000000
6.058050	0.2041	350.050354
6.061450	0.204	0.000000
6.064852	0.2041	127.653282
6.068253	0.2041	0.000000
6.071653	0.204	0.000000
6.075055	0.2041	0.000000
6.078455	0.204	0.000000
6.081857	0.2041	0.000000
6.085258	0.2041	0.000000
6.088658	0.204	1.148307
6.092060	0.2041	0.000000
6.095460	0.204	0.000000
6.098862	0.2041	0.000000
6.102263	0.2041	0.000000
6.105663	0.204	0.000000
6.109065	0.2041	0.000000
6.112465	0.204	0.000000
6.115867	0.2041	0.000000
6.119268	0.2041	0.000000
6.122668	0.204	0.000000
6.126070	0.2041	0.000000
6.129470	0.204	0.000000
6.132872	0.2041	0.000000
6.136273	0.2041	0.000000
6.139673	0.204	0.000000
6.143075	0.2041	0.000000
6.146477	0.2041	0.000000
6.149877	0.204	0.000000
6.153278	0.2041	3614.407715
6.156678	0.204	0.000000
6.160080	0.2041	0.000000
6.163482	0.2041	0.000000
6.166882	0.204	0.000000
6.170283	0.2041	0.000000
6.173683	0.204	0.000000
6.177085	0.2041	31.395584
6.180487	0.2041	1.403114
6.183887	0.204	0.000000
6.187288	0.2041	0.000000
6.190688	0.204	0.000000
6.194090	0.2041	0.000000
6.197492	0.2041	0.000000
6.200892	0.204	0.000000
6.204293	0.2041	0.000000
6.207695	0.2041	0.000000
6.211095	0.204	0.000000
6.214497	0.2041	0.000000
6.217897	0.204	0.000000
6.221298	0.2041	0.000000
6.224700	0.2041	0.000000
6.228100	0.204	0.000000
6.231502	0.2041	0.000000
6.234902	0.204	0.000000
6.238303	0.2041	0.000000
6.241705	0.2041	0.000000
6.245105	0.204	0.000000
6.248507	0.2041	0.000000
6.251907	0.204	0.000000
6.255308	0.2041	0.000000
6.258710	0.2041	0.000000
6.262110	0.204	0.000000
6.265512	0.2041	0.000000
6.268912	0.204	77.707344
6.272313	0.2041	0.000000
6.275715	0.2041	0.000000
6.279115	0.204	619.259705
6.282517	0.2041	567.733948
6.285918	0.2041	0.000000
6.289318	0.204	0.000000
6.292720	0.2041	0.000000
6.296120	0.204	0.000000
6.299522	0.2041	1948.938354
6.302923	0.2041	2239.725586
6.306323	0.204	0.000000
6.309725	0.2041	0.000000
6.313125	0.204	0.000000
6.316527	0.2041	0.000000
6.319928	0.2041	0.000000
6.323328	0.204	0.000000
6.326730	0.2041	53.397392
6.330130	0.204	0.000000
6.333532	0.2041	0.000000
6.336933	0.2041	0.000000
6.340333	0.204	67.640381
6.343735	0.2041	3393.893799
6.347135	0.204	0.000000
6.350537	0.2041	0.000000
6.353938	0.2041	0.000000
6.357338	0.204	283.297943
6.360740	0.2041	11.919129
6.364142	0.2041	0.000000
6.367542	0.204	3.751983
6.370943	0.2041	0.000000
6.374343	0.204	0.711219
6.377745	0.2041	0.000000
6.381147	0.2041	0.000000
6.384547	0.204	0.826449
6.387948	0.2041	0.000000
6.391348	0.204	0.000000
6.394750	0.2041	0.000000
6.398152	0.2041	0.000000
6.401552	0.204	0.000000
6.404953	0.2041	718.514526
6.408353	0.204	0.000000
6.411755	0.2041	1149.295776
6.415157	0.2041	1308.619629
6.418557	0.204	0.000000
6.421958	0.2041	0.000000
6.425360	0.2041	0.000000
6.428760	0.204	0.000000
6.432162	0.2041	525.479492
6.435562	0.204	706.113281
6.438963	0.2041	5.854346
6.442365	0.2041	2666.021484
6.445765	0.204	0.000000
6.449167	0.2041	0.000000
6.452567	0.204	0.011129
6.455968	0.2041	1182.160278
6.459370	0.2041	1065.637451
6.462770	0.204	0.000000
6.466172	0.2041	0.000000
6.469572	0.204	0.000000
6.472973	0.2041	0.000000
6.476375	0.2041	49.615475
6.479775	0.204	0.000000
6.483177	0.2041	0.000000
6.486577	0.204	0.000000
6.489978	0.2041	0.000000
6.493380	0.2041	0.000000
6.496780	0.204	0.000000
6.500182	0.2041	620.982300
6.503583	0.2041	749.869934
6.506983	0.204	59.070141
6.510385	0.2041	0.000000
6.513785	0.204	74.201454
6.517187	0.2041	0.000000
6.520588	0.2041	0.000000
6.523988	0.204	0.000000
6.527390	0.2041	0.000000
6.530790	0.204	0.000000
6.534192	0.2041	27.237791
6.537593	0.2041	0.000000
6.540993	0.204	11.773827
6.544395	0.2041	0.000000
6.547795	0.204	1227.668579
6.551197	0.2041	0.000000
6.554598	0.2041	0.000000
6.557998	0.204	3519.092041
6.561400	0.2041	0.000000
6.564802	0.2041	1588.167725
6.568202	0.204	1346.479858
6.571603	0.2041	4048.319092
6.575003	0.204	4410.758789
6.578405	0.2041	0.000000
6.581807	0.2041	25.598913
6.585207	0.204	545.919983
6.588608	0.2041	6.147943
6.592008	0.204	0.000000
6.595410	0.2041	0.000000
6.598812	0.2041	0.000000
6.602212	0.204	1844.170898
6.605613	0.2041	2162.526855
6.609013	0.204	0.000000
6.612415	0.2041	0.000000
6.615817	0.2041	220.785889
6.619217	0.204	0.000000
6.622618	0.2041	83.387100
6.626018	0.204	0.576118
6.629420	0.2041	10.473582
6.632822	0.2041	0.000000
6.636222	0.204	0.000000
6.639623	0.2041	1.655225
6.643025	0.2041	0.000000
6.646425	0.204	0.498296
6.649827	0.2041	0.000000
6.653227	0.204	0.000000
6.656628	0.2041	0.000000
6.660030	0.2041	0.000000
6.663430	0.204	13.180245
6.666832	0.2041	0.000000
6.670232	0.204	0.000000
6.673633	0.2041	0.000000
6.677035	0.2041	0.000000
6.680435	0.204	0.000000
6.683837	0.2041	0.000000
6.687237	0.204	0.000000
6.690638	0.2041	799.771240
6.694040	0.2041	0.000000
6.697440	0.204	0.000000
6.700842	0.2041	8.401522
6.704243	0.2041	0.000000
6.707643	0.204	0.000000
6.711045	0.2041	899.618103
6.714445	0.204	0.000000
6.717847	0.2041	549.663635
6.721248	0.2041	630.616394
6.724648	0.204	106.367783
6.728050	0.2041	0.000000
6.731450	0.204	105.318359
6.734852	0.2041	0.000000
6.738253	0.2041	0.000000
6.741653	0.204	0.000000
6.745055	0.2041	1626.975220
6.748455	0.204	0.000000
6.751857	0.2041	0.000000
6.755258	0.2041	0.000000
6.758658	0.204	0.000000
6.762060	0.2041	0.000000
6.765462	0.2041	0.000000
6.768862	0.204	0.000000
6.772263	0.2041	0.000000
6.775663	0.204	0.000000
6.779065	0.2041	0.000000
6.782467	0.2041	0.446670
6.785867	0.204	0.000000
6.789268	0.2041	0.000000
6.792668	0.204	443.714874
6.796070	0.2041	0.000000
6.799472	0.2041	0.000000
6.802872	0.204	0.000000
6.806273	0.2041	0.000000
6.809673	0.204	0.000000
6.813075	0.2041	20.043293
6.816477	0.2041	0.000000
6.819877	0.204	0.000000
6.823278	0.2041	0.000000
6.826678	0.204	0.000000
6.830080	0.2041	0.000000
6.833482	0.2041	0.000000
6.836882	0.204	0.000000
6.840283	0.2041	0.000000
6.843685	0.2041	0.000000
6.847085	0.204	0.000000
6.850487	0.2041	1597.345337
6.853887	0.204	1820.612793
6.857288	0.2041	494.535400
6.860690	0.2041	459.910614
6.864090	0.204	241.908218
6.867492	0.2041	0.000000
6.870892	0.204	0.000000
6.874293	0.2041	0.000000
6.877695	0.2041	22.691221
6.881095	0.204	0.000000
6.884497	0.2041	0.000000
6.887897	0.204	0.000000
6.891298	0.2041	1299.536865
6.894700	0.2041	0.000000
6.898100	0.204	0.000000
6.901502	0.2041	199.897034
6.904903	0.2041	0.000000
6.908303	0.204	378.200928
6.911705	0.2041	0.000000
6.915105	0.204	524.308167
6.918507	0.2041	1073.487671
6.921908	0.2041	0.000000
6.925308	0.204	0.000000
6.928710	0.2041	0.000000
6.932110	0.204	0.000000
6.935512	0.2041	0.000000
6.938913	0.2041	101.871124
6.942313	0.204	0.000000
6.945715	0.2041	0.000000
6.949115	0.204	0.000000
6.952517	0.2041	0.000000
6.955918	0.2041	0.000000
6.959318	0.204	0.000000
6.962720	0.2041	730.884766
6.966120	0.204	0.000000
6.969522	0.2041	0.000000
6.972923	0.2041	0.000000
6.976323	0.204	0.000000
6.979725	0.2041	0.000000
6.983127	0.2041	0.000000
6.986527	0.204	0.000000
6.989928	0.2041	0.000000
6.993328	0.204	0.000000
