URL	chrom://isq7ci2006004/ChromeleonLocal/Instrument Data/Aspuru-Guzik/Stanley/2024_12_16_005c-H.seq/306.smp/MS_F1_[266.1-266.3].channel/MS_F1_[266.1-266.3].chm
Channel	MS_F1_[266.1-266.3]

Injection Information:
Data Vault	ChromeleonLocal
Sequence	2024_12_16_005c-H
Name	005c-H3F_conc
Number	7
Position	5
Comment	
Processing Method	Basic Quantitative
Instrument Method	2024_12_16_005c-H - Copy
Type	Unknown
Status	Finished
Inject Time	12/16/2024 3:47:11 PM -05:00
Volume (µl)	3.0000
Dilution Factor	1.0000
Weight	1.0000

Chromatogram Data Information:
Time Min. (min)	2.500490
Time Max. (min)	6.996633
Data Points	1323
Detector	MSDevice
Generating Data System	Chromeleon 7.3 Build 60919 (5efd55c28726aa174740e3ad3b435409b51aa6a1)
Exporting Data System	Chromeleon 7.3.0.0
Operator	aspuruguzik
Signal Quantity	Intensity
Signal Unit	counts
Signal Min.	0.000000
Signal Max.	25756054.000000
Channel	MS_F1_[266.1-266.3]
Driver Name	Thermo.MassSpectrometer
Channel Type	Evaluation
Min. Step (s)	0.204
Max. Step (s)	0.2041
Average Step (s)	0.20406097

Signal Parameter Information:
Signal Info	

Chromatogram Data:
Time (min)	Step (s)	Value (counts)
2.500490	n.a.	0.000000
2.503890	0.204	0.000000
2.507292	0.2041	0.000000
2.510692	0.204	0.000000
2.514093	0.2041	13213.420898
2.517495	0.2041	0.000000
2.520895	0.204	0.000000
2.524297	0.2041	0.000000
2.527698	0.2041	0.000000
2.531098	0.204	0.000000
2.534500	0.2041	0.000000
2.537900	0.204	0.000000
2.541302	0.2041	0.000000
2.544703	0.2041	0.000000
2.548103	0.204	0.000000
2.551505	0.2041	0.000000
2.554905	0.204	0.000000
2.558307	0.2041	0.000000
2.561708	0.2041	0.000000
2.565108	0.204	0.000000
2.568510	0.2041	0.000000
2.571910	0.204	0.000000
2.575312	0.2041	0.000000
2.578713	0.2041	0.000000
2.582113	0.204	0.000000
2.585515	0.2041	13234.416016
2.588917	0.2041	0.000000
2.592317	0.204	0.000000
2.595718	0.2041	0.000000
2.599118	0.204	0.000000
2.602520	0.2041	0.000000
2.605922	0.2041	0.000000
2.609322	0.204	11795.982422
2.612723	0.2041	0.000000
2.616123	0.204	0.000000
2.619525	0.2041	23166.929688
2.622927	0.2041	0.000000
2.626327	0.204	0.000000
2.629728	0.2041	0.000000
2.633128	0.204	0.000000
2.636530	0.2041	0.000000
2.639932	0.2041	5087.108398
2.643332	0.204	0.000000
2.646733	0.2041	12915.729492
2.650133	0.204	0.000000
2.653535	0.2041	0.000000
2.656937	0.2041	16902.154297
2.660337	0.204	0.000000
2.663738	0.2041	0.000000
2.667140	0.2041	0.000000
2.670540	0.204	0.000000
2.673942	0.2041	0.000000
2.677342	0.204	0.000000
2.680743	0.2041	0.000000
2.684145	0.2041	14787.644531
2.687545	0.204	9193.616211
2.690947	0.2041	0.000000
2.694347	0.204	0.000000
2.697748	0.2041	0.000000
2.701150	0.2041	0.000000
2.704550	0.204	0.000000
2.707952	0.2041	0.000000
2.711352	0.204	0.000000
2.714753	0.2041	0.000000
2.718155	0.2041	5423.397461
2.721555	0.204	0.000000
2.724957	0.2041	0.000000
2.728357	0.204	14654.485352
2.731758	0.2041	0.000000
2.735160	0.2041	0.000000
2.738560	0.204	0.000000
2.741962	0.2041	0.000000
2.745363	0.2041	0.000000
2.748763	0.204	0.000000
2.752165	0.2041	0.000000
2.755565	0.204	18549.734375
2.758967	0.2041	20638.863281
2.762368	0.2041	8132.871094
2.765768	0.204	0.000000
2.769170	0.2041	0.000000
2.772570	0.204	0.000000
2.775972	0.2041	19050.658203
2.779373	0.2041	17835.462891
2.782773	0.204	0.000000
2.786175	0.2041	18232.564453
2.789575	0.204	17643.005859
2.792977	0.2041	0.000000
2.796378	0.2041	0.000000
2.799778	0.204	12708.525391
2.803180	0.2041	0.000000
2.806582	0.2041	0.000000
2.809982	0.204	0.000000
2.813383	0.2041	0.000000
2.816783	0.204	0.000000
2.820185	0.2041	0.000000
2.823587	0.2041	0.000000
2.826987	0.204	0.000000
2.830388	0.2041	0.000000
2.833788	0.204	0.000000
2.837190	0.2041	0.000000
2.840592	0.2041	0.000000
2.843992	0.204	0.000000
2.847393	0.2041	0.000000
2.850793	0.204	0.000000
2.854195	0.2041	0.000000
2.857597	0.2041	0.000000
2.860997	0.204	0.000000
2.864398	0.2041	0.000000
2.867798	0.204	0.000000
2.871200	0.2041	0.000000
2.874602	0.2041	0.000000
2.878002	0.204	0.000000
2.881403	0.2041	0.000000
2.884805	0.2041	0.000000
2.888205	0.204	0.000000
2.891607	0.2041	0.000000
2.895007	0.204	0.000000
2.898408	0.2041	0.000000
2.901810	0.2041	0.000000
2.905210	0.204	4948.708008
2.908612	0.2041	14194.924805
2.912012	0.204	22230.421875
2.915413	0.2041	0.000000
2.918815	0.2041	0.000000
2.922215	0.204	0.000000
2.925617	0.2041	0.000000
2.929017	0.204	0.000000
2.932418	0.2041	20589.460938
2.935820	0.2041	0.000000
2.939220	0.204	0.000000
2.942622	0.2041	12007.078125
2.946023	0.2041	0.000000
2.949423	0.204	0.000000
2.952825	0.2041	0.000000
2.956225	0.204	0.000000
2.959627	0.2041	0.000000
2.963028	0.2041	0.000000
2.966428	0.204	7850.457520
2.969830	0.2041	0.000000
2.973230	0.204	0.000000
2.976632	0.2041	23574.835938
2.980033	0.2041	0.000000
2.983433	0.204	18478.904297
2.986835	0.2041	0.000000
2.990235	0.204	0.000000
2.993637	0.2041	13185.346680
2.997038	0.2041	0.000000
3.000438	0.204	0.000000
3.003840	0.2041	0.000000
3.007240	0.204	0.000000
3.010642	0.2041	0.000000
3.014043	0.2041	0.000000
3.017443	0.204	0.000000
3.020845	0.2041	0.000000
3.024247	0.2041	0.000000
3.027647	0.204	0.000000
3.031048	0.2041	0.000000
3.034448	0.204	20640.808594
3.037850	0.2041	21155.914063
3.041252	0.2041	0.000000
3.044652	0.204	16533.302734
3.048053	0.2041	0.000000
3.051453	0.204	0.000000
3.054855	0.2041	4201.855957
3.058257	0.2041	0.000000
3.061657	0.204	0.000000
3.065058	0.2041	0.000000
3.068458	0.204	0.000000
3.071860	0.2041	0.000000
3.075262	0.2041	5273.631836
3.078662	0.204	0.000000
3.082063	0.2041	0.000000
3.085465	0.2041	0.000000
3.088865	0.204	0.000000
3.092267	0.2041	0.000000
3.095667	0.204	16279.900391
3.099068	0.2041	0.000000
3.102470	0.2041	0.000000
3.105870	0.204	10120.429688
3.109272	0.2041	0.000000
3.112672	0.204	4693.953613
3.116073	0.2041	0.000000
3.119475	0.2041	0.000000
3.122875	0.204	0.000000
3.126277	0.2041	0.000000
3.129677	0.204	0.000000
3.133078	0.2041	16085.390625
3.136480	0.2041	0.000000
3.139880	0.204	0.000000
3.143282	0.2041	6355.821289
3.146682	0.204	0.000000
3.150083	0.2041	0.000000
3.153485	0.2041	18924.880859
3.156885	0.204	0.000000
3.160287	0.2041	12015.889648
3.163688	0.2041	0.000000
3.167088	0.204	0.000000
3.170490	0.2041	13343.054688
3.173890	0.204	9767.407227
3.177292	0.2041	0.000000
3.180693	0.2041	0.000000
3.184093	0.204	0.000000
3.187495	0.2041	0.000000
3.190895	0.204	0.000000
3.194297	0.2041	0.000000
3.197698	0.2041	0.000000
3.201098	0.204	0.000000
3.204500	0.2041	6655.085449
3.207900	0.204	0.000000
3.211302	0.2041	0.000000
3.214703	0.2041	0.000000
3.218103	0.204	0.000000
3.221505	0.2041	0.000000
3.224907	0.2041	0.000000
3.228307	0.204	0.000000
3.231708	0.2041	0.000000
3.235108	0.204	0.000000
3.238510	0.2041	0.000000
3.241912	0.2041	0.000000
3.245312	0.204	0.000000
3.248713	0.2041	0.000000
3.252113	0.204	0.000000
3.255515	0.2041	0.000000
3.258917	0.2041	0.000000
3.262317	0.204	16933.296875
3.265718	0.2041	17233.701172
3.269118	0.204	0.000000
3.272520	0.2041	0.000000
3.275922	0.2041	0.000000
3.279322	0.204	0.000000
3.282723	0.2041	0.000000
3.286125	0.2041	0.000000
3.289525	0.204	0.000000
3.292927	0.2041	11032.833008
3.296327	0.204	0.000000
3.299728	0.2041	0.000000
3.303130	0.2041	8698.024414
3.306530	0.204	0.000000
3.309932	0.2041	17737.003906
3.313332	0.204	0.000000
3.316733	0.2041	0.000000
3.320135	0.2041	0.000000
3.323535	0.204	12551.362305
3.326937	0.2041	13987.714844
3.330337	0.204	0.000000
3.333738	0.2041	0.000000
3.337140	0.2041	11231.965820
3.340540	0.204	10936.245117
3.343942	0.2041	0.000000
3.347342	0.204	0.000000
3.350743	0.2041	0.000000
3.354145	0.2041	0.000000
3.357545	0.204	0.000000
3.360947	0.2041	0.000000
3.364348	0.2041	0.000000
3.367748	0.204	13423.229492
3.371150	0.2041	7416.995605
3.374550	0.204	0.000000
3.377952	0.2041	0.000000
3.381353	0.2041	0.000000
3.384753	0.204	0.000000
3.388155	0.2041	0.000000
3.391555	0.204	0.000000
3.394957	0.2041	0.000000
3.398358	0.2041	0.000000
3.401758	0.204	0.000000
3.405160	0.2041	0.000000
3.408560	0.204	0.000000
3.411962	0.2041	0.000000
3.415363	0.2041	0.000000
3.418763	0.204	0.000000
3.422165	0.2041	18171.275391
3.425567	0.2041	0.000000
3.428967	0.204	0.000000
3.432368	0.2041	0.000000
3.435768	0.204	0.000000
3.439170	0.2041	0.000000
3.442572	0.2041	0.000000
3.445972	0.204	0.000000
3.449373	0.2041	0.000000
3.452773	0.204	20888.041016
3.456175	0.2041	0.000000
3.459577	0.2041	0.000000
3.462977	0.204	0.000000
3.466378	0.2041	0.000000
3.469778	0.204	0.000000
3.473180	0.2041	0.000000
3.476582	0.2041	0.000000
3.479982	0.204	0.000000
3.483383	0.2041	0.000000
3.486783	0.204	0.000000
3.490185	0.2041	0.000000
3.493587	0.2041	0.000000
3.496987	0.204	0.000000
3.500388	0.2041	0.000000
3.503790	0.2041	0.000000
3.507190	0.204	0.000000
3.510592	0.2041	0.000000
3.513992	0.204	0.000000
3.517393	0.2041	0.000000
3.520795	0.2041	0.000000
3.524195	0.204	0.000000
3.527597	0.2041	22930.365234
3.530997	0.204	18118.857422
3.534398	0.2041	22672.962891
3.537800	0.2041	0.000000
3.541200	0.204	18222.226563
3.544602	0.2041	0.000000
3.548002	0.204	0.000000
3.551403	0.2041	0.000000
3.554805	0.2041	0.000000
3.558205	0.204	0.000000
3.561607	0.2041	0.000000
3.565008	0.2041	0.000000
3.568408	0.204	10681.589844
3.571810	0.2041	0.000000
3.575210	0.204	0.000000
3.578612	0.2041	0.000000
3.582013	0.2041	17913.013672
3.585413	0.204	0.000000
3.588815	0.2041	0.000000
3.592215	0.204	8632.313477
3.595617	0.2041	0.000000
3.599018	0.2041	14175.416992
3.602418	0.204	0.000000
3.605820	0.2041	0.000000
3.609220	0.204	0.000000
3.612622	0.2041	0.000000
3.616023	0.2041	0.000000
3.619423	0.204	0.000000
3.622825	0.2041	11930.950195
3.626225	0.204	0.000000
3.629627	0.2041	0.000000
3.633028	0.2041	0.000000
3.636428	0.204	0.000000
3.639830	0.2041	0.000000
3.643232	0.2041	0.000000
3.646632	0.204	0.000000
3.650033	0.2041	0.000000
3.653433	0.204	0.000000
3.656835	0.2041	0.000000
3.660237	0.2041	0.000000
3.663637	0.204	0.000000
3.667038	0.2041	0.000000
3.670438	0.204	0.000000
3.673840	0.2041	0.000000
3.677242	0.2041	0.000000
3.680642	0.204	0.000000
3.684043	0.2041	0.000000
3.687443	0.204	0.000000
3.690845	0.2041	0.000000
3.694247	0.2041	0.000000
3.697647	0.204	5152.000977
3.701048	0.2041	0.000000
3.704450	0.2041	0.000000
3.707850	0.204	0.000000
3.711252	0.2041	0.000000
3.714652	0.204	0.000000
3.718053	0.2041	15675.908203
3.721455	0.2041	0.000000
3.724855	0.204	0.000000
3.728257	0.2041	0.000000
3.731657	0.204	0.000000
3.735058	0.2041	0.000000
3.738460	0.2041	36344.945313
3.741860	0.204	67915.023438
3.745262	0.2041	163067.750000
3.748662	0.204	366548.875000
3.752063	0.2041	758372.812500
3.755465	0.2041	1480900.375000
3.758865	0.204	2659848.000000
3.762267	0.2041	4787260.000000
3.765667	0.204	7961514.000000
3.769068	0.2041	11676865.000000
3.772470	0.2041	15825448.000000
3.775870	0.204	20053284.000000
3.779272	0.2041	23860366.000000
3.782673	0.2041	25756054.000000
3.786073	0.204	25107754.000000
3.789475	0.2041	22613760.000000
3.792875	0.204	18456876.000000
3.796277	0.2041	13436238.000000
3.799678	0.2041	9092158.000000
3.803078	0.204	5312434.000000
3.806480	0.2041	3005720.750000
3.809880	0.204	1708440.000000
3.813282	0.2041	932272.250000
3.816683	0.2041	569514.250000
3.820083	0.204	406519.031250
3.823485	0.2041	327622.531250
3.826885	0.204	0.000000
3.830287	0.2041	177796.906250
3.833688	0.2041	0.000000
3.837088	0.204	168957.046875
3.840490	0.2041	127387.093750
3.843892	0.2041	123684.468750
3.847292	0.204	106474.664063
3.850693	0.2041	84971.156250
3.854093	0.204	85638.226563
3.857495	0.2041	0.000000
3.860897	0.2041	0.000000
3.864297	0.204	0.000000
3.867698	0.2041	0.000000
3.871098	0.204	55461.671875
3.874500	0.2041	41554.875000
3.877902	0.2041	0.000000
3.881302	0.204	69952.015625
3.884703	0.2041	0.000000
3.888103	0.204	0.000000
3.891505	0.2041	0.000000
3.894907	0.2041	0.000000
3.898307	0.204	52155.246094
3.901708	0.2041	0.000000
3.905108	0.204	0.000000
3.908510	0.2041	0.000000
3.911912	0.2041	40667.691406
3.915312	0.204	46362.171875
3.918713	0.2041	0.000000
3.922115	0.2041	0.000000
3.925515	0.204	0.000000
3.928917	0.2041	0.000000
3.932317	0.204	0.000000
3.935718	0.2041	0.000000
3.939120	0.2041	0.000000
3.942520	0.204	34839.238281
3.945922	0.2041	0.000000
3.949322	0.204	0.000000
3.952723	0.2041	22821.398438
3.956125	0.2041	0.000000
3.959525	0.204	0.000000
3.962927	0.2041	0.000000
3.966327	0.204	0.000000
3.969728	0.2041	0.000000
3.973130	0.2041	0.000000
3.976530	0.204	52409.039063
3.979932	0.2041	0.000000
3.983333	0.2041	48062.003906
3.986733	0.204	0.000000
3.990135	0.2041	26806.951172
3.993535	0.204	0.000000
3.996937	0.2041	0.000000
4.000338	0.2041	0.000000
4.003738	0.204	0.000000
4.007140	0.2041	0.000000
4.010540	0.204	0.000000
4.013942	0.2041	0.000000
4.017343	0.2041	0.000000
4.020743	0.204	0.000000
4.024145	0.2041	39917.917969
4.027545	0.204	0.000000
4.030947	0.2041	0.000000
4.034348	0.2041	0.000000
4.037748	0.204	13621.277344
4.041150	0.2041	0.000000
4.044552	0.2041	0.000000
4.047952	0.204	24018.851563
4.051353	0.2041	22176.517578
4.054753	0.204	0.000000
4.058155	0.2041	0.000000
4.061557	0.2041	0.000000
4.064957	0.204	0.000000
4.068358	0.2041	0.000000
4.071758	0.204	0.000000
4.075160	0.2041	0.000000
4.078562	0.2041	0.000000
4.081962	0.204	0.000000
4.085363	0.2041	0.000000
4.088763	0.204	0.000000
4.092165	0.2041	0.000000
4.095567	0.2041	0.000000
4.098967	0.204	13394.077148
4.102368	0.2041	22057.119141
4.105768	0.204	0.000000
4.109170	0.2041	6854.672852
4.112572	0.2041	0.000000
4.115972	0.204	0.000000
4.119373	0.2041	12130.020508
4.122775	0.2041	0.000000
4.126175	0.204	30462.619141
4.129577	0.2041	26604.886719
4.132977	0.204	9461.647461
4.136378	0.2041	0.000000
4.139780	0.2041	0.000000
4.143180	0.204	0.000000
4.146582	0.2041	0.000000
4.149982	0.204	0.000000
4.153383	0.2041	0.000000
4.156785	0.2041	0.000000
4.160185	0.204	0.000000
4.163587	0.2041	0.000000
4.166987	0.204	0.000000
4.170388	0.2041	0.000000
4.173790	0.2041	25887.476563
4.177190	0.204	33387.050781
4.180592	0.2041	0.000000
4.183993	0.2041	0.000000
4.187393	0.204	0.000000
4.190795	0.2041	0.000000
4.194195	0.204	0.000000
4.197597	0.2041	3583.030762
4.200998	0.2041	0.000000
4.204398	0.204	0.000000
4.207800	0.2041	0.000000
4.211200	0.204	0.000000
4.214602	0.2041	0.000000
4.218003	0.2041	0.000000
4.221403	0.204	20255.013672
4.224805	0.2041	0.000000
4.228205	0.204	0.000000
4.231607	0.2041	0.000000
4.235008	0.2041	0.000000
4.238408	0.204	0.000000
4.241810	0.2041	0.000000
4.245210	0.204	21980.169922
4.248612	0.2041	0.000000
4.252013	0.2041	0.000000
4.255413	0.204	0.000000
4.258815	0.2041	0.000000
4.262217	0.2041	23916.101563
4.265617	0.204	0.000000
4.269018	0.2041	0.000000
4.272418	0.204	0.000000
4.275820	0.2041	0.000000
4.279222	0.2041	0.000000
4.282622	0.204	0.000000
4.286023	0.2041	0.000000
4.289423	0.204	0.000000
4.292825	0.2041	0.000000
4.296227	0.2041	0.000000
4.299627	0.204	0.000000
4.303028	0.2041	0.000000
4.306428	0.204	0.000000
4.309830	0.2041	0.000000
4.313232	0.2041	0.000000
4.316632	0.204	0.000000
4.320033	0.2041	10331.250000
4.323433	0.204	17070.937500
4.326835	0.2041	0.000000
4.330237	0.2041	0.000000
4.333637	0.204	0.000000
4.337038	0.2041	0.000000
4.340440	0.2041	23362.888672
4.343840	0.204	0.000000
4.347242	0.2041	0.000000
4.350642	0.204	0.000000
4.354043	0.2041	0.000000
4.357445	0.2041	27917.400391
4.360845	0.204	0.000000
4.364247	0.2041	0.000000
4.367647	0.204	0.000000
4.371048	0.2041	15811.386719
4.374450	0.2041	20358.949219
4.377850	0.204	0.000000
4.381252	0.2041	0.000000
4.384652	0.204	0.000000
4.388053	0.2041	0.000000
4.391455	0.2041	15765.103516
4.394855	0.204	0.000000
4.398257	0.2041	0.000000
4.401658	0.2041	0.000000
4.405058	0.204	9480.775391
4.408460	0.2041	0.000000
4.411860	0.204	0.000000
4.415262	0.2041	26512.910156
4.418663	0.2041	0.000000
4.422063	0.204	0.000000
4.425465	0.2041	0.000000
4.428865	0.204	0.000000
4.432267	0.2041	0.000000
4.435668	0.2041	10407.526367
4.439068	0.204	11821.609375
4.442470	0.2041	0.000000
4.445870	0.204	0.000000
4.449272	0.2041	7325.158691
4.452673	0.2041	0.000000
4.456073	0.204	0.000000
4.459475	0.2041	0.000000
4.462875	0.204	0.000000
4.466277	0.2041	0.000000
4.469678	0.2041	0.000000
4.473078	0.204	0.000000
4.476480	0.2041	0.000000
4.479882	0.2041	0.000000
4.483282	0.204	0.000000
4.486683	0.2041	0.000000
4.490083	0.204	0.000000
4.493485	0.2041	0.000000
4.496887	0.2041	0.000000
4.500287	0.204	0.000000
4.503688	0.2041	0.000000
4.507088	0.204	0.000000
4.510490	0.2041	0.000000
4.513892	0.2041	0.000000
4.517292	0.204	0.000000
4.520693	0.2041	0.000000
4.524093	0.204	0.000000
4.527495	0.2041	0.000000
4.530897	0.2041	0.000000
4.534297	0.204	0.000000
4.537698	0.2041	0.000000
4.541100	0.2041	0.000000
4.544500	0.204	0.000000
4.547902	0.2041	0.000000
4.551302	0.204	13783.801758
4.554703	0.2041	13893.247070
4.558105	0.2041	0.000000
4.561505	0.204	0.000000
4.564907	0.2041	32148.503906
4.568307	0.204	25395.787109
4.571708	0.2041	0.000000
4.575110	0.2041	0.000000
4.578510	0.204	0.000000
4.581912	0.2041	0.000000
4.585312	0.204	0.000000
4.588713	0.2041	0.000000
4.592115	0.2041	0.000000
4.595515	0.204	0.000000
4.598917	0.2041	0.000000
4.602317	0.204	0.000000
4.605718	0.2041	0.000000
4.609120	0.2041	0.000000
4.612520	0.204	0.000000
4.615922	0.2041	0.000000
4.619323	0.2041	0.000000
4.622723	0.204	31973.947266
4.626125	0.2041	18586.626953
4.629525	0.204	0.000000
4.632927	0.2041	0.000000
4.636328	0.2041	0.000000
4.639728	0.204	0.000000
4.643130	0.2041	0.000000
4.646530	0.204	0.000000
4.649932	0.2041	0.000000
4.653333	0.2041	0.000000
4.656733	0.204	0.000000
4.660135	0.2041	0.000000
4.663535	0.204	0.000000
4.666937	0.2041	0.000000
4.670338	0.2041	0.000000
4.673738	0.204	14482.743164
4.677140	0.2041	0.000000
4.680542	0.2041	0.000000
4.683942	0.204	23492.388672
4.687343	0.2041	12361.232422
4.690743	0.204	0.000000
4.694145	0.2041	0.000000
4.697547	0.2041	20768.519531
4.700947	0.204	0.000000
4.704348	0.2041	0.000000
4.707748	0.204	0.000000
4.711150	0.2041	0.000000
4.714552	0.2041	0.000000
4.717952	0.204	8409.080078
4.721353	0.2041	0.000000
4.724753	0.204	0.000000
4.728155	0.2041	0.000000
4.731557	0.2041	0.000000
4.734957	0.204	17053.556641
4.738358	0.2041	0.000000
4.741758	0.204	0.000000
4.745160	0.2041	0.000000
4.748562	0.2041	0.000000
4.751962	0.204	0.000000
4.755363	0.2041	0.000000
4.758765	0.2041	0.000000
4.762165	0.204	0.000000
4.765567	0.2041	0.000000
4.768967	0.204	0.000000
4.772368	0.2041	0.000000
4.775770	0.2041	0.000000
4.779170	0.204	0.000000
4.782572	0.2041	0.000000
4.785972	0.204	13693.666992
4.789373	0.2041	25557.900391
4.792775	0.2041	29575.646484
4.796175	0.204	0.000000
4.799577	0.2041	0.000000
4.802977	0.204	0.000000
4.806378	0.2041	0.000000
4.809780	0.2041	0.000000
4.813180	0.204	0.000000
4.816582	0.2041	0.000000
4.819983	0.2041	22653.964844
4.823383	0.204	16304.585938
4.826785	0.2041	0.000000
4.830185	0.204	0.000000
4.833587	0.2041	0.000000
4.836988	0.2041	0.000000
4.840388	0.204	0.000000
4.843790	0.2041	26409.101563
4.847190	0.204	0.000000
4.850592	0.2041	0.000000
4.853993	0.2041	0.000000
4.857393	0.204	0.000000
4.860795	0.2041	31066.750000
4.864195	0.204	29197.548828
4.867597	0.2041	28484.164063
4.870998	0.2041	0.000000
4.874398	0.204	0.000000
4.877800	0.2041	36258.710938
4.881202	0.2041	0.000000
4.884602	0.204	0.000000
4.888003	0.2041	0.000000
4.891403	0.204	13299.153320
4.894805	0.2041	20832.677734
4.898207	0.2041	0.000000
4.901607	0.204	0.000000
4.905008	0.2041	0.000000
4.908408	0.204	0.000000
4.911810	0.2041	0.000000
4.915212	0.2041	0.000000
4.918612	0.204	0.000000
4.922013	0.2041	0.000000
4.925413	0.204	0.000000
4.928815	0.2041	0.000000
4.932217	0.2041	18397.689453
4.935617	0.204	0.000000
4.939018	0.2041	0.000000
4.942418	0.204	0.000000
4.945820	0.2041	0.000000
4.949222	0.2041	0.000000
4.952622	0.204	17503.720703
4.956023	0.2041	11159.676758
4.959425	0.2041	0.000000
4.962825	0.204	0.000000
4.966227	0.2041	0.000000
4.969627	0.204	15903.785156
4.973028	0.2041	0.000000
4.976430	0.2041	0.000000
4.979830	0.204	0.000000
4.983232	0.2041	0.000000
4.986632	0.204	10011.494141
4.990033	0.2041	0.000000
4.993435	0.2041	0.000000
4.996835	0.204	0.000000
5.000237	0.2041	0.000000
5.003637	0.204	0.000000
5.007038	0.2041	0.000000
5.010440	0.2041	0.000000
5.013840	0.204	0.000000
5.017242	0.2041	0.000000
5.020643	0.2041	0.000000
5.024043	0.204	0.000000
5.027445	0.2041	0.000000
5.030845	0.204	0.000000
5.034247	0.2041	0.000000
5.037648	0.2041	28130.712891
5.041048	0.204	0.000000
5.044450	0.2041	0.000000
5.047850	0.204	0.000000
5.051252	0.2041	0.000000
5.054653	0.2041	11602.713867
5.058053	0.204	0.000000
5.061455	0.2041	0.000000
5.064855	0.204	19810.369141
5.068257	0.2041	0.000000
5.071658	0.2041	0.000000
5.075058	0.204	0.000000
5.078460	0.2041	14721.999023
5.081860	0.204	0.000000
5.085262	0.2041	0.000000
5.088663	0.2041	0.000000
5.092063	0.204	0.000000
5.095465	0.2041	0.000000
5.098867	0.2041	0.000000
5.102267	0.204	0.000000
5.105668	0.2041	0.000000
5.109068	0.204	0.000000
5.112470	0.2041	0.000000
5.115872	0.2041	0.000000
5.119272	0.204	0.000000
5.122673	0.2041	0.000000
5.126073	0.204	27083.884766
5.129475	0.2041	0.000000
5.132877	0.2041	0.000000
5.136277	0.204	0.000000
5.139678	0.2041	0.000000
5.143078	0.204	0.000000
5.146480	0.2041	0.000000
5.149882	0.2041	0.000000
5.153282	0.204	0.000000
5.156683	0.2041	0.000000
5.160085	0.2041	0.000000
5.163485	0.204	0.000000
5.166887	0.2041	0.000000
5.170287	0.204	0.000000
5.173688	0.2041	0.000000
5.177090	0.2041	0.000000
5.180490	0.204	0.000000
5.183892	0.2041	7885.541504
5.187292	0.204	0.000000
5.190693	0.2041	0.000000
5.194095	0.2041	26253.609375
5.197495	0.204	0.000000
5.200897	0.2041	22315.701172
5.204297	0.204	13337.801758
5.207698	0.2041	0.000000
5.211100	0.2041	0.000000
5.214500	0.204	0.000000
5.217902	0.2041	19757.562500
5.221302	0.204	0.000000
5.224703	0.2041	0.000000
5.228105	0.2041	0.000000
5.231505	0.204	0.000000
5.234907	0.2041	0.000000
5.238308	0.2041	0.000000
5.241708	0.204	0.000000
5.245110	0.2041	0.000000
5.248510	0.204	0.000000
5.251912	0.2041	0.000000
5.255313	0.2041	14813.015625
5.258713	0.204	0.000000
5.262115	0.2041	0.000000
5.265515	0.204	0.000000
5.268917	0.2041	0.000000
5.272318	0.2041	0.000000
5.275718	0.204	18099.218750
5.279120	0.2041	25468.322266
5.282520	0.204	0.000000
5.285922	0.2041	0.000000
5.289323	0.2041	0.000000
5.292723	0.204	0.000000
5.296125	0.2041	0.000000
5.299527	0.2041	17203.974609
5.302927	0.204	0.000000
5.306328	0.2041	0.000000
5.309728	0.204	0.000000
5.313130	0.2041	0.000000
5.316532	0.2041	0.000000
5.319932	0.204	0.000000
5.323333	0.2041	32303.806641
5.326733	0.204	0.000000
5.330135	0.2041	0.000000
5.333537	0.2041	0.000000
5.336937	0.204	0.000000
5.340338	0.2041	33519.609375
5.343738	0.204	0.000000
5.347140	0.2041	0.000000
5.350542	0.2041	26624.548828
5.353942	0.204	34138.546875
5.357343	0.2041	0.000000
5.360743	0.204	0.000000
5.364145	0.2041	0.000000
5.367547	0.2041	0.000000
5.370947	0.204	0.000000
5.374348	0.2041	0.000000
5.377750	0.2041	0.000000
5.381150	0.204	0.000000
5.384552	0.2041	27272.544922
5.387952	0.204	0.000000
5.391353	0.2041	17248.408203
5.394755	0.2041	0.000000
5.398155	0.204	0.000000
5.401557	0.2041	25420.265625
5.404957	0.204	34236.558594
5.408358	0.2041	0.000000
5.411760	0.2041	0.000000
5.415160	0.204	0.000000
5.418562	0.2041	0.000000
5.421962	0.204	0.000000
5.425363	0.2041	0.000000
5.428765	0.2041	0.000000
5.432165	0.204	0.000000
5.435567	0.2041	24945.685547
5.438968	0.2041	0.000000
5.442368	0.204	0.000000
5.445770	0.2041	0.000000
5.449170	0.204	0.000000
5.452572	0.2041	0.000000
5.455973	0.2041	0.000000
5.459373	0.204	0.000000
5.462775	0.2041	0.000000
5.466175	0.204	0.000000
5.469577	0.2041	20853.886719
5.472978	0.2041	0.000000
5.476378	0.204	0.000000
5.479780	0.2041	0.000000
5.483180	0.204	0.000000
5.486582	0.2041	37285.757813
5.489983	0.2041	0.000000
5.493383	0.204	0.000000
5.496785	0.2041	0.000000
5.500185	0.204	0.000000
5.503587	0.2041	0.000000
5.506988	0.2041	0.000000
5.510388	0.204	0.000000
5.513790	0.2041	0.000000
5.517192	0.2041	11422.523438
5.520592	0.204	0.000000
5.523993	0.2041	0.000000
5.527393	0.204	0.000000
5.530795	0.2041	0.000000
5.534197	0.2041	0.000000
5.537597	0.204	29859.615234
5.540998	0.2041	0.000000
5.544398	0.204	18864.175781
5.547800	0.2041	0.000000
5.551202	0.2041	0.000000
5.554602	0.204	0.000000
5.558003	0.2041	0.000000
5.561403	0.204	0.000000
5.564805	0.2041	19336.525391
5.568207	0.2041	0.000000
5.571607	0.204	0.000000
5.575008	0.2041	10726.789063
5.578410	0.2041	0.000000
5.581810	0.204	0.000000
5.585212	0.2041	0.000000
5.588612	0.204	0.000000
5.592013	0.2041	0.000000
5.595415	0.2041	0.000000
5.598815	0.204	0.000000
5.602217	0.2041	0.000000
5.605617	0.204	31867.539063
5.609018	0.2041	0.000000
5.612420	0.2041	0.000000
5.615820	0.204	19795.382813
5.619222	0.2041	0.000000
5.622622	0.204	3916.191162
5.626023	0.2041	0.000000
5.629425	0.2041	11086.371094
5.632825	0.204	0.000000
5.636227	0.2041	0.000000
5.639627	0.204	0.000000
5.643028	0.2041	0.000000
5.646430	0.2041	8626.927734
5.649830	0.204	0.000000
5.653232	0.2041	0.000000
5.656633	0.2041	0.000000
5.660033	0.204	0.000000
5.663435	0.2041	0.000000
5.666835	0.204	0.000000
5.670237	0.2041	0.000000
5.673638	0.2041	29564.089844
5.677038	0.204	0.000000
5.680440	0.2041	0.000000
5.683840	0.204	0.000000
5.687242	0.2041	0.000000
5.690643	0.2041	0.000000
5.694043	0.204	0.000000
5.697445	0.2041	0.000000
5.700845	0.204	0.000000
5.704247	0.2041	0.000000
5.707648	0.2041	0.000000
5.711048	0.204	0.000000
5.714450	0.2041	0.000000
5.717852	0.2041	0.000000
5.721252	0.204	0.000000
5.724653	0.2041	33997.832031
5.728053	0.204	0.000000
5.731455	0.2041	17908.251953
5.734857	0.2041	0.000000
5.738257	0.204	0.000000
5.741658	0.2041	0.000000
5.745058	0.204	0.000000
5.748460	0.2041	0.000000
5.751862	0.2041	0.000000
5.755262	0.204	0.000000
5.758663	0.2041	0.000000
5.762063	0.204	0.000000
5.765465	0.2041	0.000000
5.768867	0.2041	0.000000
5.772267	0.204	0.000000
5.775668	0.2041	0.000000
5.779068	0.204	0.000000
5.782470	0.2041	0.000000
5.785872	0.2041	0.000000
5.789272	0.204	0.000000
5.792673	0.2041	33485.332031
5.796075	0.2041	0.000000
5.799475	0.204	0.000000
5.802877	0.2041	0.000000
5.806277	0.204	0.000000
5.809678	0.2041	0.000000
5.813080	0.2041	0.000000
5.816480	0.204	0.000000
5.819882	0.2041	0.000000
5.823282	0.204	0.000000
5.826683	0.2041	19502.060547
5.830085	0.2041	0.000000
5.833485	0.204	0.000000
5.836887	0.2041	19066.371094
5.840287	0.204	0.000000
5.843688	0.2041	0.000000
5.847090	0.2041	0.000000
5.850490	0.204	0.000000
5.853892	0.2041	0.000000
5.857293	0.2041	0.000000
5.860693	0.204	0.000000
5.864095	0.2041	0.000000
5.867495	0.204	0.000000
5.870897	0.2041	0.000000
5.874298	0.2041	0.000000
5.877698	0.204	0.000000
5.881100	0.2041	0.000000
5.884500	0.204	25423.675781
5.887902	0.2041	0.000000
5.891303	0.2041	0.000000
5.894703	0.204	0.000000
5.898105	0.2041	0.000000
5.901505	0.204	0.000000
5.904907	0.2041	0.000000
5.908308	0.2041	0.000000
5.911708	0.204	0.000000
5.915110	0.2041	0.000000
5.918510	0.204	0.000000
5.921912	0.2041	0.000000
5.925313	0.2041	21811.216797
5.928713	0.204	11102.797852
5.932115	0.2041	0.000000
5.935517	0.2041	0.000000
5.938917	0.204	0.000000
5.942318	0.2041	0.000000
5.945718	0.204	0.000000
5.949120	0.2041	8176.762695
5.952522	0.2041	0.000000
5.955922	0.204	0.000000
5.959323	0.2041	29287.013672
5.962723	0.204	20037.244141
5.966125	0.2041	0.000000
5.969527	0.2041	0.000000
5.972927	0.204	0.000000
5.976328	0.2041	0.000000
5.979728	0.204	0.000000
5.983130	0.2041	0.000000
5.986532	0.2041	22840.673828
5.989932	0.204	0.000000
5.993333	0.2041	0.000000
5.996735	0.2041	0.000000
6.000135	0.204	0.000000
6.003537	0.2041	0.000000
6.006937	0.204	0.000000
6.010338	0.2041	0.000000
6.013740	0.2041	20496.062500
6.017140	0.204	0.000000
6.020542	0.2041	0.000000
6.023942	0.204	0.000000
6.027343	0.2041	33347.535156
6.030745	0.2041	0.000000
6.034145	0.204	0.000000
6.037547	0.2041	0.000000
6.040947	0.204	0.000000
6.044348	0.2041	33105.464844
6.047750	0.2041	0.000000
6.051150	0.204	0.000000
6.054552	0.2041	0.000000
6.057953	0.2041	23501.093750
6.061353	0.204	0.000000
6.064755	0.2041	0.000000
6.068155	0.204	0.000000
6.071557	0.2041	0.000000
6.074958	0.2041	17739.669922
6.078358	0.204	0.000000
6.081760	0.2041	0.000000
6.085160	0.204	0.000000
6.088562	0.2041	0.000000
6.091963	0.2041	0.000000
6.095363	0.204	0.000000
6.098765	0.2041	0.000000
6.102165	0.204	0.000000
6.105567	0.2041	0.000000
6.108968	0.2041	0.000000
6.112368	0.204	26587.822266
6.115770	0.2041	0.000000
6.119170	0.204	0.000000
6.122572	0.2041	0.000000
6.125973	0.2041	0.000000
6.129373	0.204	0.000000
6.132775	0.2041	0.000000
6.136177	0.2041	0.000000
6.139577	0.204	0.000000
6.142978	0.2041	0.000000
6.146378	0.204	0.000000
6.149780	0.2041	0.000000
6.153182	0.2041	0.000000
6.156582	0.204	0.000000
6.159983	0.2041	0.000000
6.163383	0.204	0.000000
6.166785	0.2041	0.000000
6.170187	0.2041	0.000000
6.173587	0.204	0.000000
6.176988	0.2041	0.000000
6.180388	0.204	0.000000
6.183790	0.2041	0.000000
6.187192	0.2041	0.000000
6.190592	0.204	0.000000
6.193993	0.2041	13944.622070
6.197395	0.2041	0.000000
6.200795	0.204	0.000000
6.204197	0.2041	0.000000
6.207597	0.204	0.000000
6.210998	0.2041	0.000000
6.214400	0.2041	0.000000
6.217800	0.204	16353.080078
6.221202	0.2041	0.000000
6.224602	0.204	0.000000
6.228003	0.2041	0.000000
6.231405	0.2041	0.000000
6.234805	0.204	0.000000
6.238207	0.2041	0.000000
6.241607	0.204	0.000000
6.245008	0.2041	0.000000
6.248410	0.2041	0.000000
6.251810	0.204	0.000000
6.255212	0.2041	0.000000
6.258612	0.204	0.000000
6.262013	0.2041	0.000000
6.265415	0.2041	0.000000
6.268815	0.204	0.000000
6.272217	0.2041	0.000000
6.275618	0.2041	0.000000
6.279018	0.204	0.000000
6.282420	0.2041	0.000000
6.285820	0.204	0.000000
6.289222	0.2041	24696.740234
6.292623	0.2041	36249.078125
6.296023	0.204	40436.609375
6.299425	0.2041	0.000000
6.302825	0.204	0.000000
6.306227	0.2041	0.000000
6.309628	0.2041	52742.042969
6.313028	0.204	0.000000
6.316430	0.2041	0.000000
6.319830	0.204	0.000000
6.323232	0.2041	0.000000
6.326633	0.2041	0.000000
6.330033	0.204	0.000000
6.333435	0.2041	0.000000
6.336837	0.2041	0.000000
6.340237	0.204	1729.800537
6.343638	0.2041	0.000000
6.347038	0.204	0.000000
6.350440	0.2041	0.000000
6.353842	0.2041	0.000000
6.357242	0.204	0.000000
6.360643	0.2041	0.000000
6.364043	0.204	0.000000
6.367445	0.2041	0.000000
6.370847	0.2041	0.000000
6.374247	0.204	0.000000
6.377648	0.2041	0.000000
6.381048	0.204	0.000000
6.384450	0.2041	0.000000
6.387852	0.2041	0.000000
6.391252	0.204	0.000000
6.394653	0.2041	0.000000
6.398055	0.2041	0.000000
6.401455	0.204	0.000000
6.404857	0.2041	0.000000
6.408257	0.204	0.000000
6.411658	0.2041	0.000000
6.415060	0.2041	0.000000
6.418460	0.204	0.000000
6.421862	0.2041	0.000000
6.425262	0.204	0.000000
6.428663	0.2041	0.000000
6.432065	0.2041	18961.603516
6.435465	0.204	31658.771484
6.438867	0.2041	0.000000
6.442267	0.204	0.000000
6.445668	0.2041	0.000000
6.449070	0.2041	0.000000
6.452470	0.204	0.000000
6.455872	0.2041	0.000000
6.459272	0.204	0.000000
6.462673	0.2041	0.000000
6.466075	0.2041	0.000000
6.469475	0.204	0.000000
6.472877	0.2041	2616.599365
6.476278	0.2041	0.000000
6.479678	0.204	18380.666016
6.483080	0.2041	0.000000
6.486480	0.204	0.000000
6.489882	0.2041	0.000000
6.493283	0.2041	0.000000
6.496683	0.204	0.000000
6.500085	0.2041	0.000000
6.503485	0.204	0.000000
6.506887	0.2041	0.000000
6.510288	0.2041	0.000000
6.513688	0.204	0.000000
6.517090	0.2041	0.000000
6.520490	0.204	0.000000
6.523892	0.2041	0.000000
6.527293	0.2041	0.000000
6.530693	0.204	0.000000
6.534095	0.2041	0.000000
6.537497	0.2041	25456.994141
6.540897	0.204	18561.964844
6.544298	0.2041	0.000000
6.547698	0.204	0.000000
6.551100	0.2041	0.000000
6.554502	0.2041	0.000000
6.557902	0.204	0.000000
6.561303	0.2041	0.000000
6.564703	0.204	0.000000
6.568105	0.2041	33980.828125
6.571507	0.2041	0.000000
6.574907	0.204	0.000000
6.578308	0.2041	0.000000
6.581708	0.204	0.000000
6.585110	0.2041	0.000000
6.588512	0.2041	0.000000
6.591912	0.204	0.000000
6.595313	0.2041	0.000000
6.598713	0.204	31299.951172
6.602115	0.2041	0.000000
6.605517	0.2041	0.000000
6.608917	0.204	0.000000
6.612318	0.2041	0.000000
6.615720	0.2041	0.000000
6.619120	0.204	0.000000
6.622522	0.2041	0.000000
6.625922	0.204	0.000000
6.629323	0.2041	0.000000
6.632725	0.2041	19860.919922
6.636125	0.204	0.000000
6.639527	0.2041	0.000000
6.642927	0.204	22008.753906
6.646328	0.2041	0.000000
6.649730	0.2041	0.000000
6.653130	0.204	0.000000
6.656532	0.2041	0.000000
6.659932	0.204	0.000000
6.663333	0.2041	0.000000
6.666735	0.2041	28227.818359
6.670135	0.204	28149.568359
6.673537	0.2041	0.000000
6.676938	0.2041	0.000000
6.680338	0.204	0.000000
6.683740	0.2041	0.000000
6.687140	0.204	0.000000
6.690542	0.2041	0.000000
6.693943	0.2041	0.000000
6.697343	0.204	0.000000
6.700745	0.2041	0.000000
6.704145	0.204	0.000000
6.707547	0.2041	0.000000
6.710948	0.2041	0.000000
6.714348	0.204	0.000000
6.717750	0.2041	0.000000
6.721150	0.204	0.000000
6.724552	0.2041	0.000000
6.727953	0.2041	0.000000
6.731353	0.204	0.000000
6.734755	0.2041	0.000000
6.738155	0.204	0.000000
6.741557	0.2041	0.000000
6.744958	0.2041	0.000000
6.748358	0.204	0.000000
6.751760	0.2041	0.000000
6.755162	0.2041	0.000000
6.758562	0.204	0.000000
6.761963	0.2041	0.000000
6.765363	0.204	0.000000
6.768765	0.2041	0.000000
6.772167	0.2041	0.000000
6.775567	0.204	0.000000
6.778968	0.2041	0.000000
6.782368	0.204	0.000000
6.785770	0.2041	0.000000
6.789172	0.2041	21317.691406
6.792572	0.204	0.000000
6.795973	0.2041	0.000000
6.799373	0.204	0.000000
6.802775	0.2041	0.000000
6.806177	0.2041	0.000000
6.809577	0.204	0.000000
6.812978	0.2041	0.000000
6.816380	0.2041	0.000000
6.819780	0.204	0.000000
6.823182	0.2041	0.000000
6.826582	0.204	0.000000
6.829983	0.2041	0.000000
6.833385	0.2041	0.000000
6.836785	0.204	0.000000
6.840187	0.2041	0.000000
6.843587	0.204	22470.498047
6.846988	0.2041	26116.833984
6.850390	0.2041	0.000000
6.853790	0.204	0.000000
6.857192	0.2041	35452.000000
6.860592	0.204	0.000000
6.863993	0.2041	0.000000
6.867395	0.2041	0.000000
6.870795	0.204	0.000000
6.874197	0.2041	0.000000
6.877597	0.204	0.000000
6.880998	0.2041	0.000000
6.884400	0.2041	0.000000
6.887800	0.204	0.000000
6.891202	0.2041	0.000000
6.894603	0.2041	0.000000
6.898003	0.204	0.000000
6.901405	0.2041	0.000000
6.904805	0.204	0.000000
6.908207	0.2041	0.000000
6.911608	0.2041	0.000000
6.915008	0.204	0.000000
6.918410	0.2041	0.000000
6.921810	0.204	0.000000
6.925212	0.2041	0.000000
6.928613	0.2041	0.000000
6.932013	0.204	0.000000
6.935415	0.2041	0.000000
6.938815	0.204	0.000000
6.942217	0.2041	0.000000
6.945618	0.2041	0.000000
6.949018	0.204	0.000000
6.952420	0.2041	0.000000
6.955820	0.204	0.000000
6.959222	0.2041	0.000000
6.962623	0.2041	0.000000
6.966023	0.204	0.000000
6.969425	0.2041	0.000000
6.972827	0.2041	0.000000
6.976227	0.204	0.000000
6.979628	0.2041	0.000000
6.983028	0.204	0.000000
6.986430	0.2041	0.000000
6.989832	0.2041	0.000000
6.993232	0.204	0.000000
6.996633	0.2041	0.000000
