URL	chrom://isq7ci2006004/ChromeleonLocal/Instrument Data/Aspuru-Guzik/Stanley/2024_12_16_005c-H.seq/306.smp/MSDevice.xraw
Channel	TIC

Injection Information:
Data Vault	ChromeleonLocal
Sequence	2024_12_16_005c-H
Name	005c-H3F_conc
Number	7
Position	5
Comment	
Processing Method	Basic Quantitative
Instrument Method	2024_12_16_005c-H - Copy
Type	Unknown
Status	Finished
Inject Time	12/16/2024 3:47:11 PM -05:00
Volume (µl)	3.0000
Dilution Factor	1.0000
Weight	1.0000

Raw Data Information:
Data Points	272
Mass Min. (m/z)	150.000000
Mass Max. (m/z)	399.968075
Retention Time (min)	3.782673
Mass Resolution	0.500000
Tolerance Unit	Amu
Scan Number	378
Scan Type	+ c EI Full ms [150.00-400.00]
Is Centroid Scan	True
Base Peak Mass	266.159454
Base Peak Intensity	25756054.000000
Total Ion Count	96889854.562278

Raw Data:
Mass (m/z)	Value (counts)
150.3	40364.886719
151.1	180181.250000
152.1	755609.812500
153.1	253506.125000
154.1	104763.375000
155.0	33270.546875
155.8	27979.664063
156.8	42175.621094
157.6	27782.351563
159.1	484036.718750
160.0	445307.031250
161.1	9601667.000000
162.1	25584170.000000
163.2	3090864.500000
164.1	291356.406250
165.1	1558972.125000
166.1	518003.968750
167.1	882698.812500
168.1	175042.828125
169.0	25757.023438
170.0	6651.945313
171.1	17341.443359
172.0	20895.080078
173.1	95799.257813
174.1	160818.218750
175.1	2050030.750000
176.2	403307.906250
177.1	209350.875000
178.1	1467984.750000
179.1	714007.875000
180.1	205316.078125
181.1	202264.593750
182.1	47162.722656
183.0	14313.259766
183.7	305.588074
185.0	15126.983398
185.8	2806.707275
187.0	55181.882813
188.1	450788.562500
189.1	410071.500000
190.1	182476.250000
191.0	749993.750000
192.1	183627.781250
193.1	965114.500000
194.1	549928.562500
195.1	679130.250000
196.1	5874296.000000
197.2	912938.187500
198.2	40961.789063
198.9	9136.151367
200.1	23692.376953
201.2	14153.144531
202.1	79383.203125
203.1	65671.156250
204.0	12359.647461
204.8	19462.507813
205.3	34908.984375
206.0	14337.670898
207.0	825643.500000
208.0	195513.968750
209.1	239103.546875
210.1	48540.335938
211.1	6598.402832
212.1	1329.996582
212.7	13147.440430
213.2	3453.239258
213.9	1947.468384
214.9	6283.929199
215.6	4527.635254
216.2	5026.477051
217.2	13344.840820
218.1	4177.817383
218.9	6635.412598
221.0	93870.648438
221.8	22935.296875
222.5	18264.871094
223.3	18019.970703
224.1	4756.158691
225.1	7726.958496
226.2	5939.933594
227.0	5297.969727
227.8	3122.382568
228.9	2644.609375
230.2	2962.770752
230.9	202.871964
231.8	630.938477
233.1	2855.946289
234.5	8743.779297
235.2	14496.565430
236.3	4979.489258
237.2	31465.765625
238.1	6450.125000
239.0	6622.488770
239.6	376.325897
240.2	4444.910645
241.0	1545.087891
241.6	0.089091
243.0	6020.351563
244.5	4648.480957
245.5	1404.995483
246.6	135.470688
247.2	458.843140
247.7	0.529405
248.8	20335.492188
249.5	12250.714844
250.3	10073.191406
251.0	26269.968750
251.9	15534.938477
252.9	54150.949219
254.0	23398.216797
254.8	9185.267578
255.3	4276.989258
256.1	3247.203369
256.6	6218.872070
257.5	1077.217163
258.1	1713.211060
258.8	4577.043945
259.6	364.696777
260.8	6627.838379
261.8	2983.389160
262.5	1798.895508
263.1	10828.902344
264.2	201887.281250
265.0	101943.710938
266.2	25756054.000000
267.2	5360692.000000
268.2	609424.500000
269.2	47733.812500
270.0	6982.526367
271.1	2668.180420
272.6	10989.059570
273.2	5378.185059
274.1	5161.227051
274.9	0.001855
276.0	973.908142
277.1	3376.710449
277.9	4893.242676
278.8	5337.075195
279.6	3190.662598
280.1	5887.563477
281.0	453140.156250
282.0	111272.601563
283.0	68968.039063
283.9	17184.021484
285.0	10504.377930
286.2	8407.243164
287.7	27.414619
288.3	0.962887
289.0	127.228729
289.6	694.183289
290.3	42.617477
290.9	3321.610107
293.0	9037.125000
294.2	3503.170410
295.1	25399.416016
296.1	11156.070313
297.0	13781.195313
298.1	1621.438965
298.8	2835.752197
299.4	2938.236328
300.2	0.240974
301.1	1552.294434
301.6	10.620439
302.5	33.565338
303.4	0.114677
304.1	0.000002
305.1	1.371467
305.9	1.366855
306.6	6582.162109
307.2	1605.434692
307.8	4.728800
308.9	5121.925781
309.5	39.043564
311.0	7976.979980
311.8	5477.947754
312.7	8740.591797
313.5	1127.416016
315.1	18710.841797
315.9	5424.224609
316.7	6669.608398
317.4	12.471364
318.5	167.819138
319.2	1660.655884
319.9	0.002288
321.0	977.799927
323.1	3475.684570
323.8	6801.714355
325.1	50912.378906
325.9	8298.830078
327.0	96771.523438
327.9	37887.980469
329.0	29732.210938
330.1	9821.390625
330.9	27005.300781
331.7	4662.772461
332.8	2486.841553
333.3	685.979187
333.9	150.530350
334.4	635.991943
335.0	17.028894
335.5	0.926693
336.9	1330.024902
339.3	10190.633789
340.1	9089.005859
340.9	130510.109375
341.9	37672.593750
342.9	37798.093750
343.7	5792.991211
344.4	2206.664551
345.3	5804.803223
346.2	5294.848145
346.9	7487.248535
348.0	4315.594727
348.7	2741.146484
349.6	3.048756
350.1	0.000105
351.1	1236.597290
351.8	62.623566
352.9	1318.172241
354.1	4180.639648
355.0	162762.578125
356.1	63466.675781
357.1	49682.406250
358.0	8093.159668
359.2	4948.786621
359.7	2040.791992
360.9	47.630611
362.0	244.652496
362.8	0.843858
363.4	0.000877
364.5	66.030617
365.1	1876.642334
366.1	30468.126953
367.0	6484.459473
367.6	349.082672
368.1	56.959019
369.2	13875.497070
369.9	5237.833496
370.6	476.608582
371.1	503.169708
371.9	550.591370
373.2	2034.660400
374.3	28.009464
375.0	1390.071533
375.8	0.000024
376.4	0.196898
376.9	6585.168945
377.6	53.762455
378.9	12.168674
380.1	1302.113892
381.2	794.843323
381.7	57.565228
382.9	9747.518555
383.8	3830.251709
384.8	3415.083496
385.4	2794.281006
386.4	2763.146973
387.0	1957.666504
387.9	91.783348
389.2	6300.534668
390.0	5298.051270
390.9	1377.130005
392.4	85.662285
393.0	2917.850830
393.5	1.220084
394.4	8.769442
394.9	1138.769287
395.8	661.836121
396.7	2046.437256
397.7	460.981750
399.0	27065.605469
399.8	3763.657227
