URL	chrom:TIC.chm
Channel	TIC

Injection Information:
Data Vault	ChromeleonLocal
Sequence	2024_12_16_005c-H
Name	PS_Dimer_conc
Number	5
Position	3
Comment	
Processing Method	Basic Quantitative
Instrument Method	2024_12_16_005c-H - Copy
Type	Unknown
Status	Finished
Inject Time	12/16/2024 3:19:27 PM -05:00
Volume (µl)	5.0000
Dilution Factor	1.0000
Weight	1.0000

Chromatogram Data Information:
Time Min. (min)	2.500672
Time Max. (min)	6.996815
Data Points	1323
Detector	MSDevice
Generating Data System	Chromeleon 7.3 Build 60919 (5efd55c28726aa174740e3ad3b435409b51aa6a1)
Exporting Data System	Chromeleon 7.3.0.0
Operator	Instrument Controller
Signal Quantity	Intensity
Signal Unit	counts
Signal Min.	1228461.495667
Signal Max.	32525129.015537
Channel	TIC
Driver Name	Thermo.MassSpectrometer
Channel Type	Evaluation
Min. Step (s)	0.204
Max. Step (s)	0.2041
Average Step (s)	0.20406097

Signal Parameter Information:
Signal Info	

Chromatogram Data:
Time (min)	Step (s)	Value (counts)
2.500672	n.a.	1228461.495667
2.504073	0.2041	1354019.904598
2.507473	0.204	1568094.403885
2.510875	0.2041	1597059.728254
2.514275	0.204	1638135.131945
2.517677	0.2041	1740508.310508
2.521078	0.2041	1719140.702916
2.524478	0.204	1698157.903068
2.527880	0.2041	1794554.135339
2.531280	0.204	2350162.831314
2.534682	0.2041	3581850.803351
2.538083	0.2041	4939560.156041
2.541483	0.204	5726611.006948
2.544885	0.2041	5832365.354914
2.548287	0.2041	5816328.542218
2.551687	0.204	5828798.362946
2.555088	0.2041	5821144.661404
2.558488	0.204	5781742.761025
2.561890	0.2041	5748760.698095
2.565292	0.2041	5846026.748140
2.568692	0.204	5913770.317979
2.572093	0.2041	5920228.223438
2.575493	0.204	5833577.787718
2.578895	0.2041	5817046.417505
2.582297	0.2041	5825895.353045
2.585697	0.204	5882867.693117
2.589098	0.2041	5813933.428766
2.592498	0.204	5714867.522401
2.595900	0.2041	5866039.445591
2.599302	0.2041	5701712.188650
2.602702	0.204	5501646.268983
2.606103	0.2041	5737344.736821
2.609505	0.2041	5904698.573890
2.612905	0.204	5829906.481404
2.616307	0.2041	5813222.499279
2.619707	0.204	5799930.277046
2.623108	0.2041	5713470.007247
2.626510	0.2041	5693820.548473
2.629910	0.204	5570728.757176
2.633312	0.2041	5353882.446039
2.636712	0.204	5385042.505587
2.640113	0.2041	5562263.323019
2.643515	0.2041	5663966.071554
2.646915	0.204	5750300.283814
2.650317	0.2041	5746576.060843
2.653717	0.204	5651257.756450
2.657118	0.2041	5659673.741444
2.660520	0.2041	5699389.206312
2.663920	0.204	5614327.605362
2.667322	0.2041	5549268.534567
2.670722	0.204	5680828.682861
2.674123	0.2041	5826635.250212
2.677525	0.2041	5752748.193494
2.680925	0.204	5849469.132034
2.684327	0.2041	5814499.964528
2.687728	0.2041	5560630.951015
2.691128	0.204	5695669.531295
2.694530	0.2041	5749748.181463
2.697930	0.204	5564352.095920
2.701332	0.2041	5628104.515600
2.704733	0.2041	5716241.014353
2.708133	0.204	5643307.305891
2.711535	0.2041	5619549.335568
2.714935	0.204	5615630.677743
2.718337	0.2041	5580728.029290
2.721738	0.2041	5609525.490726
2.725138	0.204	5825329.712762
2.728540	0.2041	5821410.692864
2.731940	0.204	5763827.674524
2.735342	0.2041	5999373.807701
2.738743	0.2041	6033575.036518
2.742143	0.204	5929779.135439
2.745545	0.2041	5873555.627425
2.748947	0.2041	5880551.590112
2.752347	0.204	5872078.889224
2.755748	0.2041	5785334.521055
2.759148	0.204	5947994.581377
2.762550	0.2041	6074626.886603
2.765952	0.2041	5909522.977263
2.769352	0.204	5758020.922752
2.772753	0.2041	5755995.182203
2.776153	0.204	5905376.702642
2.779555	0.2041	5978268.756478
2.782957	0.2041	5779407.486685
2.786357	0.204	5606382.577998
2.789758	0.2041	5650023.100798
2.793158	0.204	5791046.653771
2.796560	0.2041	6035298.866080
2.799962	0.2041	6025044.217939
2.803362	0.204	5810768.847415
2.806763	0.2041	5698033.162124
2.810165	0.2041	5764600.108745
2.813565	0.204	5827774.755879
2.816967	0.2041	5708717.142931
2.820367	0.204	5804638.463824
2.823768	0.2041	5888860.662789
2.827170	0.2041	5793107.377386
2.830570	0.204	5725878.273912
2.833972	0.2041	5832079.936813
2.837372	0.204	5890390.370477
2.840773	0.2041	5813005.653968
2.844175	0.2041	5844596.990943
2.847575	0.204	5844885.356161
2.850977	0.2041	5774556.721959
2.854377	0.204	5724446.679762
2.857778	0.2041	5804122.932162
2.861180	0.2041	5868526.063174
2.864580	0.204	5897539.091783
2.867982	0.2041	5956537.358047
2.871382	0.204	5829033.766663
2.874783	0.2041	5798443.973762
2.878185	0.2041	5926698.228934
2.881585	0.204	6026588.637095
2.884987	0.2041	5824668.644800
2.888388	0.2041	5663668.315688
2.891788	0.204	5870922.221465
2.895190	0.2041	5801944.970632
2.898590	0.204	5849531.245166
2.901992	0.2041	6045644.347901
2.905393	0.2041	5856962.793582
2.908793	0.204	5949403.714823
2.912195	0.2041	5876876.404190
2.915595	0.204	5800609.251220
2.918997	0.2041	6014285.506662
2.922398	0.2041	5895597.330044
2.925798	0.204	6001523.570095
2.929200	0.2041	6082639.452146
2.932600	0.204	5796562.246641
2.936002	0.2041	5864740.278028
2.939403	0.2041	6125492.541988
2.942803	0.204	5985809.843076
2.946205	0.2041	5801007.290717
2.949607	0.2041	5903030.648671
2.953007	0.204	5995909.926008
2.956408	0.2041	6117351.738986
2.959808	0.204	6185308.750244
2.963210	0.2041	6023948.754717
2.966612	0.2041	6036814.702281
2.970012	0.204	6114731.923657
2.973413	0.2041	5973920.142216
2.976813	0.204	5919796.720218
2.980215	0.2041	5953772.136307
2.983617	0.2041	5972903.218093
2.987017	0.204	6137349.585057
2.990418	0.2041	6299295.397159
2.993818	0.204	6314963.616440
2.997220	0.2041	6128150.778613
3.000622	0.2041	5939656.878205
3.004022	0.204	6053119.978617
3.007423	0.2041	6116479.567244
3.010823	0.204	5935779.235159
3.014225	0.2041	5914447.826266
3.017627	0.2041	5925030.986683
3.021027	0.204	5923338.406903
3.024428	0.2041	6141571.977031
3.027830	0.2041	6009034.879895
3.031230	0.204	5925030.399511
3.034632	0.2041	6208031.577544
3.038032	0.204	6257083.340098
3.041433	0.2041	6201156.789643
3.044835	0.2041	6017275.894391
3.048235	0.204	6007211.950725
3.051637	0.2041	6240608.239583
3.055037	0.204	6173369.454195
3.058438	0.2041	6008970.817647
3.061840	0.2041	6079139.291716
3.065240	0.204	6126373.189565
3.068642	0.2041	6116708.531058
3.072042	0.204	6238987.660442
3.075443	0.2041	6240426.149079
3.078845	0.2041	6344280.356929
3.082245	0.204	6430425.805444
3.085647	0.2041	6439944.559518
3.089047	0.204	6402560.835033
3.092448	0.2041	6214656.393783
3.095850	0.2041	6213599.515309
3.099250	0.204	6422299.516799
3.102652	0.2041	6365138.386390
3.106053	0.2041	6253288.645650
3.109453	0.204	6401756.592149
3.112855	0.2041	6542163.854441
3.116255	0.204	6455028.569016
3.119657	0.2041	6175005.446508
3.123058	0.2041	6150124.427632
3.126458	0.204	6184318.128244
3.129860	0.2041	6107108.018469
3.133260	0.204	6195593.252283
3.136662	0.2041	6178740.758321
3.140063	0.2041	6184498.367579
3.143463	0.204	6273658.903478
3.146865	0.2041	5992471.364291
3.150265	0.204	6050557.705073
3.153667	0.2041	6407552.360146
3.157068	0.2041	6346418.542545
3.160468	0.204	6339224.661510
3.163870	0.2041	6257458.912450
3.167272	0.2041	6058619.807301
3.170672	0.204	6083828.869775
3.174073	0.2041	6032199.336861
3.177473	0.204	6152590.900194
3.180875	0.2041	6249798.447882
3.184277	0.2041	6054562.108053
3.187677	0.204	6243511.565306
3.191078	0.2041	6347639.574014
3.194478	0.204	6270391.826433
3.197880	0.2041	6252469.282301
3.201282	0.2041	6294584.074258
3.204682	0.204	6449888.518535
3.208083	0.2041	6212110.689133
3.211483	0.204	6227690.440734
3.214885	0.2041	6533222.351564
3.218287	0.2041	6435747.969408
3.221687	0.204	6353429.651700
3.225088	0.2041	6381299.102431
3.228488	0.204	6251760.556423
3.231890	0.2041	6169352.687922
3.235292	0.2041	6276248.888284
3.238692	0.204	6269142.838501
3.242093	0.2041	6203343.393385
3.245495	0.2041	6174070.116741
3.248895	0.204	6121224.907195
3.252297	0.2041	6249683.441049
3.255697	0.204	6374997.102371
3.259098	0.2041	6188829.511825
3.262500	0.2041	6143782.711762
3.265900	0.204	6269354.224551
3.269302	0.2041	6312262.648318
3.272702	0.204	6365802.577843
3.276103	0.2041	6386029.486362
3.279505	0.2041	6430567.197495
3.282905	0.204	6347370.320463
3.286307	0.2041	6217842.673713
3.289707	0.204	6265106.122150
3.293108	0.2041	6297155.225899
3.296510	0.2041	6247470.470102
3.299910	0.204	6169929.125045
3.303312	0.2041	6155879.133047
3.306713	0.2041	6322378.003104
3.310113	0.204	6288316.809749
3.313515	0.2041	6247666.793522
3.316915	0.204	6449947.864981
3.320317	0.2041	6454583.705557
3.323718	0.2041	6560977.239722
3.327118	0.204	6563435.767925
3.330520	0.2041	6333415.288992
3.333920	0.204	6383029.023478
3.337322	0.2041	6338976.760129
3.340723	0.2041	6290861.983238
3.344123	0.204	6371447.737639
3.347525	0.2041	6278393.476516
3.350925	0.204	6395723.473593
3.354327	0.2041	6511761.714880
3.357728	0.2041	6465739.718402
3.361128	0.204	6488568.462732
3.364530	0.2041	6352858.036241
3.367932	0.2041	6256597.389180
3.371332	0.204	6424871.428566
3.374733	0.2041	6504366.234412
3.378133	0.204	6385034.216504
3.381535	0.2041	6362007.776179
3.384937	0.2041	6345033.280829
3.388337	0.204	6371875.488236
3.391738	0.2041	6506446.135456
3.395138	0.204	6470377.565627
3.398540	0.2041	6496926.313452
3.401942	0.2041	6565208.197085
3.405342	0.204	6422616.659434
3.408743	0.2041	6434923.182443
3.412143	0.204	6472857.035249
3.415545	0.2041	6421558.939588
3.418947	0.2041	6393313.906054
3.422347	0.204	6403825.570957
3.425748	0.2041	6423571.790288
3.429148	0.204	6345500.182752
3.432550	0.2041	6342761.102817
3.435952	0.2041	6436824.481646
3.439352	0.204	6493152.774803
3.442753	0.2041	6497789.592261
3.446155	0.2041	6547807.887718
3.449555	0.204	6637360.552486
3.452957	0.2041	6636643.783738
3.456357	0.204	6465860.971540
3.459758	0.2041	6429715.973764
3.463160	0.2041	6570900.729480
3.466560	0.204	6519823.680637
3.469962	0.2041	6464876.266035
3.473362	0.204	6532119.263031
3.476763	0.2041	6637267.527429
3.480165	0.2041	6660365.521809
3.483565	0.204	6590925.618993
3.486967	0.2041	6444023.455971
3.490367	0.204	6428715.128094
3.493768	0.2041	6560576.883140
3.497170	0.2041	6600740.103160
3.500570	0.204	6667257.024329
3.503972	0.2041	6675893.910577
3.507373	0.2041	6680788.651333
3.510773	0.204	6690605.197730
3.514175	0.2041	6575454.555051
3.517575	0.204	6707226.585404
3.520977	0.2041	6546547.572843
3.524378	0.2041	6190993.489975
3.527778	0.204	6521350.696143
3.531180	0.2041	6783190.202117
3.534580	0.204	6754893.386515
3.537982	0.2041	6788525.059460
3.541383	0.2041	6573612.490507
3.544783	0.204	6612807.250473
3.548185	0.2041	6825533.168347
3.551585	0.204	6789655.715572
3.554987	0.2041	6855860.160775
3.558388	0.2041	6791992.468139
3.561788	0.204	6534174.727963
3.565190	0.2041	6668170.353626
3.568590	0.204	6782932.022207
3.571992	0.2041	6547537.924718
3.575393	0.2041	6593215.484787
3.578793	0.204	6760200.170220
3.582195	0.2041	6770460.537294
3.585597	0.2041	6685846.274910
3.588997	0.204	6657619.521731
3.592398	0.2041	6793129.277239
3.595798	0.204	6816254.200937
3.599200	0.2041	6658495.317791
3.602602	0.2041	6551390.246662
3.606002	0.204	6568215.306244
3.609403	0.2041	6639380.167850
3.612803	0.204	6682187.018927
3.616205	0.2041	6681694.346756
3.619607	0.2041	6648028.332613
3.623007	0.204	6643932.049484
3.626408	0.2041	6866996.218294
3.629808	0.204	6982982.570187
3.633210	0.2041	6898890.352416
3.636612	0.2041	6783514.721820
3.640012	0.204	6685605.809830
3.643413	0.2041	6743982.605980
3.646815	0.2041	6859465.041956
3.650215	0.204	6882556.498637
3.653617	0.2041	6859819.522716
3.657017	0.204	6888368.265872
3.660418	0.2041	6804108.960695
3.663820	0.2041	6691554.938213
3.667220	0.204	6623736.028196
3.670622	0.2041	6702546.073689
3.674022	0.204	6911609.214635
3.677423	0.2041	6905906.259064
3.680825	0.2041	6805631.366069
3.684225	0.204	6886691.165539
3.687627	0.2041	6881575.858067
3.691027	0.204	6766236.425245
3.694428	0.2041	6848605.728871
3.697830	0.2041	6857124.149559
3.701230	0.204	6847263.603915
3.704632	0.2041	6909146.879874
3.708032	0.204	6916410.652938
3.711433	0.2041	7017723.778807
3.714835	0.2041	6998940.363747
3.718235	0.204	6777148.207779
3.721637	0.2041	6568359.328961
3.725038	0.2041	6612557.561236
3.728438	0.204	6924198.687729
3.731840	0.2041	7001633.014954
3.735240	0.204	6777192.380575
3.738642	0.2041	6797466.718083
3.742043	0.2041	7076726.567687
3.745443	0.204	7193905.696315
3.748845	0.2041	7123412.821274
3.752245	0.204	7402900.623085
3.755647	0.2041	8039882.813741
3.759048	0.2041	9266497.636286
3.762448	0.204	11184752.687271
3.765850	0.2041	13934615.060062
3.769250	0.204	17868632.196885
3.772652	0.2041	22515790.342357
3.776053	0.2041	27671792.905147
3.779453	0.204	31526001.420568
3.782855	0.2041	32525129.015537
3.786257	0.2041	32189871.463434
3.789657	0.204	30276960.880208
3.793058	0.2041	26271901.515770
3.796458	0.204	21782898.110719
3.799860	0.2041	17670548.146739
3.803262	0.2041	13997241.256872
3.806662	0.204	11094517.205072
3.810063	0.2041	9502797.695821
3.813463	0.204	8409849.368440
3.816865	0.2041	7818846.663257
3.820267	0.2041	7692606.350422
3.823667	0.204	7355797.707498
3.827068	0.2041	7389538.919107
3.830468	0.204	7415278.244985
3.833870	0.2041	7316869.431993
3.837272	0.2041	7379116.151257
3.840672	0.204	7236954.440694
3.844073	0.2041	7129636.458157
3.847473	0.204	7131280.020829
3.850875	0.2041	7062466.070753
3.854277	0.2041	7050836.702208
3.857677	0.204	7078107.641053
3.861078	0.2041	6970703.262014
3.864480	0.2041	6797973.642786
3.867880	0.204	6832723.218720
3.871282	0.2041	6899750.872203
3.874682	0.204	6982478.508810
3.878083	0.2041	7028427.080536
3.881485	0.2041	6795633.964011
3.884885	0.204	6775294.270552
3.888287	0.2041	6850447.096822
3.891687	0.204	6906114.151579
3.895088	0.2041	6949741.648472
3.898490	0.2041	6912858.687845
3.901890	0.204	7066908.110014
3.905292	0.2041	7066442.878635
3.908692	0.204	7013510.778322
3.912093	0.2041	6942640.610771
3.915495	0.2041	7002666.809804
3.918895	0.204	7011587.956929
3.922297	0.2041	6801595.547007
3.925698	0.2041	6939961.247460
3.929098	0.204	6929617.258474
3.932500	0.2041	6844574.042674
3.935900	0.204	7044603.556735
3.939302	0.2041	7001767.857416
3.942703	0.2041	6835986.377457
3.946103	0.204	6982847.759744
3.949505	0.2041	7037530.218119
3.952905	0.204	7008485.033861
3.956307	0.2041	6997747.806985
3.959708	0.2041	6957841.243329
3.963108	0.204	6963428.236257
3.966510	0.2041	6902290.792744
3.969910	0.204	6997534.095578
3.973312	0.2041	6858732.029452
3.976713	0.2041	6871132.510106
3.980113	0.204	6965113.956012
3.983515	0.2041	6922126.366856
3.986915	0.204	7195626.346276
3.990317	0.2041	7212701.947231
3.993718	0.2041	7269723.499349
3.997118	0.204	7305027.699749
4.000520	0.2041	7112710.270218
4.003922	0.2041	7072691.791423
4.007322	0.204	7122483.592710
4.010723	0.2041	7090439.109457
4.014123	0.204	7138847.683653
4.017525	0.2041	7190732.849841
4.020927	0.2041	7067143.304676
4.024327	0.204	7051977.959700
4.027728	0.2041	6999891.916514
4.031128	0.204	6983470.733052
4.034530	0.2041	7126528.875912
4.037932	0.2041	7218732.497199
4.041332	0.204	7251744.790044
4.044733	0.2041	7163874.493571
4.048133	0.204	7081408.343562
4.051535	0.2041	7162981.835482
4.054937	0.2041	7129341.658285
4.058337	0.204	7073080.994498
4.061738	0.2041	7105953.496031
4.065140	0.2041	7223738.009967
4.068540	0.204	7419047.701636
4.071942	0.2041	7422121.632137
4.075342	0.204	7293496.530189
4.078743	0.2041	7200384.420990
4.082145	0.2041	7095036.749549
4.085545	0.204	7195069.642964
4.088947	0.2041	7333160.246551
4.092347	0.204	7370590.989635
4.095748	0.2041	7321050.239197
4.099150	0.2041	7176048.027430
4.102550	0.204	7160446.952716
4.105952	0.2041	7335171.222601
4.109352	0.204	7354006.572830
4.112753	0.2041	7197733.793852
4.116155	0.2041	7203176.553121
4.119555	0.204	7332981.906770
4.122957	0.2041	7301712.665010
4.126357	0.204	7385787.867531
4.129758	0.2041	7507469.803286
4.133160	0.2041	7343586.819181
4.136560	0.204	7311926.693627
4.139962	0.2041	7316250.329486
4.143363	0.2041	7184670.347040
4.146763	0.204	7323292.638862
4.150165	0.2041	7311293.177463
4.153565	0.204	7207674.570257
4.156967	0.2041	7360440.529387
4.160368	0.2041	7312495.156502
4.163768	0.204	7270246.470691
4.167170	0.2041	7266702.536490
4.170570	0.204	7249819.192067
4.173972	0.2041	7393031.305615
4.177373	0.2041	7383793.587071
4.180773	0.204	7354611.398968
4.184175	0.2041	7443840.004008
4.187575	0.204	7433502.046789
4.190977	0.2041	7438554.809295
4.194378	0.2041	7527816.090115
4.197778	0.204	7419602.859212
4.201180	0.2041	7341850.411457
4.204582	0.2041	7412118.413537
4.207982	0.204	7551096.214921
4.211383	0.2041	7503059.048464
4.214783	0.204	7331555.825330
4.218185	0.2041	7376566.474754
4.221587	0.2041	7443203.445635
4.224987	0.204	7378023.318867
4.228388	0.2041	7339759.055423
4.231788	0.204	7572305.270333
4.235190	0.2041	7531811.249093
4.238592	0.2041	7598841.941822
4.241992	0.204	7632082.250350
4.245393	0.2041	7313465.083812
4.248793	0.204	7420998.098466
4.252195	0.2041	7308334.304229
4.255597	0.2041	7283113.527952
4.258997	0.204	7535205.571231
4.262398	0.2041	7482607.036407
4.265800	0.2041	7498852.912586
4.269200	0.204	7420817.294633
4.272602	0.2041	7374203.301854
4.276002	0.204	7515725.759354
4.279403	0.2041	7517367.126885
4.282805	0.2041	7462007.508440
4.286205	0.204	7451159.854129
4.289607	0.2041	7511952.493992
4.293007	0.204	7513737.442191
4.296408	0.2041	7463640.615309
4.299810	0.2041	7411492.458097
4.303210	0.204	7286325.455648
4.306612	0.2041	7399533.858586
4.310012	0.204	7511984.539779
4.313413	0.2041	7396862.141220
4.316815	0.2041	7426614.564205
4.320215	0.204	7476642.936489
4.323617	0.2041	7488801.201068
4.327017	0.204	7404838.010408
4.330418	0.2041	7359785.446315
4.333820	0.2041	7529930.161309
4.337220	0.204	7398976.795556
4.340622	0.2041	7346415.297733
4.344023	0.2041	7675466.434148
4.347423	0.204	7794990.423022
4.350825	0.2041	7617912.944907
4.354225	0.204	7410680.591230
4.357627	0.2041	7358396.995630
4.361028	0.2041	7396329.956081
4.364428	0.204	7506954.779582
4.367830	0.2041	7595576.166616
4.371230	0.204	7525426.987982
4.374632	0.2041	7579988.210273
4.378033	0.2041	7642293.699009
4.381433	0.204	7565090.130909
4.384835	0.2041	7536860.852677
4.388235	0.204	7550409.101345
4.391637	0.2041	7492345.281261
4.395038	0.2041	7479163.544088
4.398438	0.204	7564034.845671
4.401840	0.2041	7519706.048283
4.405242	0.2041	7484587.008398
4.408642	0.204	7487175.664234
4.412043	0.2041	7506293.692823
4.415443	0.204	7581693.587686
4.418845	0.2041	7653406.088949
4.422247	0.2041	7606334.214917
4.425647	0.204	7763566.422719
4.429048	0.2041	7884539.392797
4.432448	0.204	7557845.970611
4.435850	0.2041	7571797.816485
4.439252	0.2041	7800841.663293
4.442652	0.204	7769895.755289
4.446053	0.2041	7606975.048174
4.449453	0.204	7673514.017616
4.452855	0.2041	7759946.313294
4.456257	0.2041	7559252.218466
4.459657	0.204	7579824.792581
4.463058	0.2041	7729184.188796
4.466458	0.204	7584622.475192
4.469860	0.2041	7571997.659938
4.473262	0.2041	7690048.865760
4.476662	0.204	7560952.303332
4.480063	0.2041	7672455.728324
4.483465	0.2041	7832643.327458
4.486865	0.204	7759977.278823
4.490267	0.2041	7657221.678260
4.493667	0.204	7621847.997922
4.497068	0.2041	7777449.122221
4.500470	0.2041	7746805.299309
4.503870	0.204	7653269.818090
4.507272	0.2041	7493750.219498
4.510672	0.204	7571180.565550
4.514073	0.2041	7922705.677821
4.517475	0.2041	7742259.437437
4.520875	0.204	7578599.129241
4.524277	0.2041	7700296.518033
4.527677	0.204	7713543.903052
4.531078	0.2041	7825660.720651
4.534480	0.2041	7905381.938099
4.537880	0.204	7781540.075141
4.541282	0.2041	7965542.198576
4.544683	0.2041	7837503.388002
4.548083	0.204	7466716.992592
4.551485	0.2041	7622456.350083
4.554885	0.204	7677040.040432
4.558287	0.2041	7694251.396446
4.561688	0.2041	7748750.860499
4.565088	0.204	7741496.163458
4.568490	0.2041	7814126.386444
4.571890	0.204	7723768.052118
4.575292	0.2041	7886357.992643
4.578693	0.2041	8215862.283878
4.582093	0.204	7903393.866420
4.585495	0.2041	7629136.529386
4.588895	0.204	7908914.910177
4.592297	0.2041	7959699.914108
4.595698	0.2041	7764040.679691
4.599098	0.204	7737156.992832
4.602500	0.2041	7732939.741078
4.605902	0.2041	7993027.426051
4.609302	0.204	7888769.010504
4.612703	0.2041	7710490.433038
4.616103	0.204	7887646.688593
4.619505	0.2041	7856031.767922
4.622907	0.2041	7818371.363040
4.626307	0.204	7821727.396062
4.629708	0.2041	7945038.307093
4.633108	0.204	8005808.225444
4.636510	0.2041	7842536.868606
4.639912	0.2041	7802164.496428
4.643312	0.204	7859897.501772
4.646713	0.2041	7803599.239358
4.650113	0.204	7844012.397879
4.653515	0.2041	7967470.916872
4.656917	0.2041	7910709.573945
4.660317	0.204	7998207.943995
4.663718	0.2041	8093977.230334
4.667118	0.204	8077296.932270
4.670520	0.2041	8138357.967372
4.673922	0.2041	7989931.164902
4.677322	0.204	7873917.559732
4.680723	0.2041	7867622.903972
4.684125	0.2041	7881866.849621
4.687525	0.204	7872529.449719
4.690927	0.2041	7852350.216770
4.694327	0.204	7819081.385774
4.697728	0.2041	7799037.418788
4.701130	0.2041	7945178.156043
4.704530	0.204	7941316.964188
4.707932	0.2041	7907149.891221
4.711332	0.204	8002901.920165
4.714733	0.2041	7989466.124148
4.718135	0.2041	7979712.738868
4.721535	0.204	7874197.729893
4.724937	0.2041	7822983.606686
4.728337	0.204	7957150.697523
4.731738	0.2041	7803709.769311
4.735140	0.2041	7832686.535581
4.738540	0.204	7882079.878055
4.741942	0.2041	7810450.477065
4.745343	0.2041	8102467.591194
4.748743	0.204	7988994.196622
4.752145	0.2041	8028178.111745
4.755545	0.204	8367324.457529
4.758947	0.2041	8099657.133552
4.762348	0.2041	7918419.904551
4.765748	0.204	8017488.407732
4.769150	0.2041	8120892.349829
4.772550	0.204	8148483.675190
4.775952	0.2041	8039480.369836
4.779353	0.2041	7994000.201015
4.782753	0.204	8020979.769380
4.786155	0.2041	8110586.017251
4.789555	0.204	8018359.543273
4.792957	0.2041	7925106.306774
4.796358	0.2041	8109092.217561
4.799758	0.204	8120431.967971
4.803160	0.2041	7866695.687104
4.806560	0.204	7787187.900715
4.809962	0.2041	7917418.866277
4.813363	0.2041	8140731.936738
4.816763	0.204	8245314.370078
4.820165	0.2041	8039027.558037
4.823567	0.2041	7924282.972755
4.826967	0.204	8023672.527572
4.830368	0.2041	7977278.509001
4.833768	0.204	8201260.306603
4.837170	0.2041	8209375.935531
4.840572	0.2041	7740635.904145
4.843972	0.204	7941587.323169
4.847373	0.2041	8224329.218166
4.850773	0.204	7975446.401679
4.854175	0.2041	7905153.882667
4.857577	0.2041	8004614.727540
4.860977	0.204	8157864.063994
4.864378	0.2041	8111866.621694
4.867778	0.204	8000464.654185
4.871180	0.2041	8221417.359375
4.874582	0.2041	8254958.064147
4.877982	0.204	8233413.739156
4.881383	0.2041	8186044.263530
4.884785	0.2041	8021104.807128
4.888185	0.204	8175894.126236
4.891587	0.2041	8013314.024545
4.894987	0.204	7851683.909997
4.898388	0.2041	7988492.649758
4.901790	0.2041	8098397.680619
4.905190	0.204	8050930.867179
4.908592	0.2041	8007638.054837
4.911992	0.204	8183496.855299
4.915393	0.2041	8067533.944778
4.918795	0.2041	8126809.001779
4.922195	0.204	8284718.265970
4.925597	0.2041	8008878.207297
4.928997	0.204	8018977.062539
4.932398	0.2041	8269156.733184
4.935800	0.2041	8182841.759809
4.939200	0.204	8206583.623538
4.942602	0.2041	8203320.517658
4.946002	0.204	7961776.620449
4.949403	0.2041	8057483.009970
4.952805	0.2041	8277309.135472
4.956205	0.204	8341450.559690
4.959607	0.2041	8226978.787201
4.963008	0.2041	8019099.502310
4.966408	0.204	8095524.343189
4.969810	0.2041	8225302.489615
4.973210	0.204	8265389.216978
4.976612	0.2041	8376198.772664
4.980013	0.2041	8316584.767197
4.983413	0.204	8278077.389505
4.986815	0.2041	8230942.786965
4.990215	0.204	7929916.464051
4.993617	0.2041	8118287.974418
4.997018	0.2041	8270307.403549
5.000418	0.204	8084551.152320
5.003820	0.2041	8370205.436583
5.007220	0.204	8397741.822875
5.010622	0.2041	8304946.712492
5.014023	0.2041	8410523.647184
5.017423	0.204	8207309.166838
5.020825	0.2041	8284274.432349
5.024227	0.2041	8289641.812091
5.027627	0.204	8172094.647448
5.031028	0.2041	8281280.175371
5.034428	0.204	8152919.730654
5.037830	0.2041	8200891.173356
5.041232	0.2041	8472040.076168
5.044632	0.204	8509308.856351
5.048033	0.2041	8278468.790982
5.051433	0.204	8243275.914802
5.054835	0.2041	8319276.371725
5.058237	0.2041	8207799.215468
5.061637	0.204	8168536.930718
5.065038	0.2041	8275693.388074
5.068438	0.204	8292364.926597
5.071840	0.2041	8399964.935229
5.075242	0.2041	8490183.801920
5.078642	0.204	8281257.726634
5.082043	0.2041	8592438.771778
5.085445	0.2041	8846097.113786
5.088845	0.204	8320614.525245
5.092247	0.2041	8253092.734350
5.095647	0.204	8457255.084591
5.099048	0.2041	8392706.389769
5.102450	0.2041	8461396.022218
5.105850	0.204	8181895.798876
5.109252	0.2041	8177294.347509
5.112652	0.204	8674577.511591
5.116053	0.2041	8661335.330265
5.119455	0.2041	8431558.592456
5.122855	0.204	8478590.601535
5.126257	0.2041	8601869.026178
5.129657	0.204	8670163.938537
5.133058	0.2041	8626770.851197
5.136460	0.2041	8396534.360855
5.139860	0.204	8377683.850065
5.143262	0.2041	8324024.454847
5.146662	0.204	8287152.491568
5.150063	0.2041	8459655.305430
5.153465	0.2041	8308101.590721
5.156865	0.204	8448245.967715
5.160267	0.2041	8556221.135132
5.163668	0.2041	8240544.259520
5.167068	0.204	8294750.635489
5.170470	0.2041	8232325.832670
5.173870	0.204	8191603.859873
5.177272	0.2041	8467544.772266
5.180673	0.2041	8395977.548208
5.184073	0.204	8385756.508074
5.187475	0.2041	8541105.212739
5.190875	0.204	8404659.873844
5.194277	0.2041	8440387.355913
5.197678	0.2041	8584356.711492
5.201078	0.204	8461388.594908
5.204480	0.2041	8500715.414312
5.207880	0.204	8684370.371387
5.211282	0.2041	8524843.438854
5.214683	0.2041	8509021.239746
5.218083	0.204	8483410.631497
5.221485	0.2041	8249163.137470
5.224887	0.2041	8469179.594001
5.228287	0.204	8548092.767235
5.231688	0.2041	8504092.899314
5.235088	0.204	8643847.237051
5.238490	0.2041	8499831.192293
5.241892	0.2041	8394450.994867
5.245292	0.204	8590367.333545
5.248693	0.2041	8756701.833991
5.252093	0.204	8519857.305015
5.255495	0.2041	8463266.493454
5.258897	0.2041	8742600.163367
5.262297	0.204	8644436.287660
5.265698	0.2041	8369462.738911
5.269098	0.204	8458621.345622
5.272500	0.2041	8665889.053331
5.275902	0.2041	8599927.494976
5.279302	0.204	8592472.266206
5.282703	0.2041	8524017.701999
5.286103	0.204	8380840.900451
5.289505	0.2041	8619580.724512
5.292907	0.2041	8656941.933928
5.296307	0.204	8482386.656597
5.299708	0.2041	8513543.646402
5.303110	0.2041	8453755.874028
5.306510	0.204	8311594.970839
5.309912	0.2041	8413210.263751
5.313312	0.204	8447410.031633
5.316713	0.2041	8297011.520522
5.320115	0.2041	8466904.484259
5.323515	0.204	8414666.672654
5.326917	0.2041	8469117.822107
5.330317	0.204	8763129.761121
5.333718	0.2041	8607665.725540
5.337120	0.2041	8432497.206048
5.340520	0.204	8485217.171154
5.343922	0.2041	8620911.323108
5.347322	0.204	8777663.369244
5.350723	0.2041	8845835.732127
5.354125	0.2041	8687442.301173
5.357525	0.204	8611572.857869
5.360927	0.2041	8528692.550854
5.364328	0.2041	8491963.073577
5.367728	0.204	8540098.182239
5.371130	0.2041	8493909.523885
5.374530	0.204	8441867.880208
5.377932	0.2041	8456305.536876
5.381333	0.2041	8484064.762274
5.384733	0.204	8699938.544335
5.388135	0.2041	8827929.026256
5.391535	0.204	8640973.468447
5.394937	0.2041	8535929.648730
5.398338	0.2041	8606796.659729
5.401738	0.204	8498707.480935
5.405140	0.2041	8399546.849660
5.408540	0.204	8489249.213962
5.411942	0.2041	8510532.667499
5.415343	0.2041	8705495.036557
5.418743	0.204	8684015.827072
5.422145	0.2041	8539188.300143
5.425545	0.204	8546270.308016
5.428947	0.2041	8537275.275001
5.432348	0.2041	8741327.548399
5.435748	0.204	8696027.031996
5.439150	0.2041	8524601.412710
5.442552	0.2041	8725082.649827
5.445952	0.204	8785952.048942
5.449353	0.2041	8680799.660264
5.452753	0.204	8665749.886253
5.456155	0.2041	8601164.504135
5.459557	0.2041	8516218.180441
5.462957	0.204	8638153.052899
5.466358	0.2041	8787023.537683
5.469758	0.204	8654330.344545
5.473160	0.2041	8543233.836634
5.476562	0.2041	8747053.091746
5.479962	0.204	8631327.194437
5.483363	0.2041	8318837.956626
5.486763	0.204	8468346.980558
5.490165	0.2041	8523619.117989
5.493567	0.2041	8527313.324909
5.496967	0.204	8544513.089654
5.500368	0.2041	8512537.705442
5.503770	0.2041	8640184.315363
5.507170	0.204	8452293.082602
5.510572	0.2041	8519127.337789
5.513972	0.204	8885789.099507
5.517373	0.2041	8754352.718892
5.520775	0.2041	8525933.433179
5.524175	0.204	8535776.245938
5.527577	0.2041	8410919.911109
5.530977	0.204	8477180.729143
5.534378	0.2041	8690334.102057
5.537780	0.2041	8619500.328462
5.541180	0.204	8674939.254878
5.544582	0.2041	8781110.690050
5.547982	0.204	8777618.158970
5.551383	0.2041	8741073.183042
5.554785	0.2041	8567433.361577
5.558185	0.204	8607384.904034
5.561587	0.2041	8838579.997512
5.564987	0.204	8708483.476847
5.568388	0.2041	8669406.874225
5.571790	0.2041	8801347.480968
5.575190	0.204	8687860.493687
5.578592	0.2041	8777114.156464
5.581993	0.2041	8867654.932335
5.585393	0.204	8806573.684988
5.588795	0.2041	8693876.956213
5.592195	0.204	8737915.776978
5.595597	0.2041	8882765.165403
5.598998	0.2041	8766354.121567
5.602398	0.204	8715512.485175
5.605800	0.2041	8860235.033429
5.609200	0.204	8951234.270604
5.612602	0.2041	8911168.506661
5.616003	0.2041	8758357.977503
5.619403	0.204	8910485.644866
5.622805	0.2041	8928322.791489
5.626205	0.204	8810571.987725
5.629607	0.2041	8861252.078628
5.633008	0.2041	8686150.928454
5.636408	0.204	8707404.141029
5.639810	0.2041	8865533.844791
5.643212	0.2041	8752748.911376
5.646612	0.204	8853180.909309
5.650013	0.2041	8847848.994735
5.653413	0.204	8659220.146165
5.656815	0.2041	8660456.811037
5.660217	0.2041	8658911.021353
5.663617	0.204	8773150.260464
5.667018	0.2041	8949369.036055
5.670418	0.204	8870224.099807
5.673820	0.2041	8633115.058129
5.677222	0.2041	8782414.534420
5.680622	0.204	8812620.362391
5.684023	0.2041	8542701.078383
5.687423	0.204	8528126.949519
5.690825	0.2041	8667686.637014
5.694227	0.2041	8904471.565055
5.697627	0.204	9034752.387064
5.701028	0.2041	8836507.412619
5.704428	0.204	8644089.147775
5.707830	0.2041	8761533.102794
5.711232	0.2041	8727434.897739
5.714632	0.204	8606857.597581
5.718033	0.2041	8827631.143607
5.721435	0.2041	8937370.030193
5.724835	0.204	8812545.065516
5.728237	0.2041	8950821.874309
5.731637	0.204	9130095.877011
5.735038	0.2041	9021597.125949
5.738440	0.2041	8846866.164705
5.741840	0.204	8673032.091488
5.745242	0.2041	8862337.563715
5.748642	0.204	8978544.365870
5.752043	0.2041	8708299.010846
5.755445	0.2041	8667437.476106
5.758845	0.204	8715039.893135
5.762247	0.2041	8856901.376785
5.765647	0.204	8697187.406302
5.769048	0.2041	8413657.675217
5.772450	0.2041	8599455.853922
5.775850	0.204	8715443.720261
5.779252	0.2041	8757800.673618
5.782653	0.2041	8809510.524263
5.786053	0.204	8856137.808074
5.789455	0.2041	8743464.902656
5.792855	0.204	8732116.297446
5.796257	0.2041	9130806.217596
5.799658	0.2041	8955954.158269
5.803058	0.204	8673090.618615
5.806460	0.2041	8792562.172941
5.809860	0.204	8772691.420170
5.813262	0.2041	8923683.031708
5.816663	0.2041	8961674.036826
5.820063	0.204	8766474.051449
5.823465	0.2041	8821779.924945
5.826865	0.204	8978539.428937
5.830267	0.2041	8778914.903046
5.833668	0.2041	8614773.981013
5.837068	0.204	8928352.758596
5.840470	0.2041	8897104.791186
5.843872	0.2041	8835546.382764
5.847272	0.204	8946309.465396
5.850673	0.2041	8741649.010587
5.854073	0.204	8756399.133882
5.857475	0.2041	8830300.878160
5.860877	0.2041	8669915.611629
5.864277	0.204	8644258.763861
5.867678	0.2041	8859763.567579
5.871078	0.204	8876637.244047
5.874480	0.2041	8813353.806836
5.877882	0.2041	8933583.673124
5.881282	0.204	9077432.233687
5.884683	0.2041	8981258.107794
5.888083	0.204	8762893.821674
5.891485	0.2041	8842607.519271
5.894887	0.2041	9121846.821076
5.898287	0.204	9020412.226048
5.901688	0.2041	8791231.557222
5.905088	0.204	8722972.663452
5.908490	0.2041	8766878.841519
5.911892	0.2041	9111296.347291
5.915292	0.204	9035366.942919
5.918693	0.2041	8796489.045180
5.922095	0.2041	9014197.819512
5.925495	0.204	9171411.395739
5.928897	0.2041	8971541.433386
5.932297	0.204	8940258.081784
5.935698	0.2041	9018499.845853
5.939100	0.2041	8805699.176326
5.942500	0.204	8758780.763701
5.945902	0.2041	8943610.393575
5.949302	0.204	8930244.806365
5.952703	0.2041	8648163.825175
5.956105	0.2041	8786940.832419
5.959505	0.204	9171542.239892
5.962907	0.2041	8948691.834702
5.966307	0.204	8847588.217140
5.969708	0.2041	9180788.923581
5.973110	0.2041	9010418.835489
5.976510	0.204	8988425.121763
5.979912	0.2041	8955224.615491
5.983313	0.2041	8523457.186548
5.986713	0.204	8920689.356667
5.990115	0.2041	9051065.422675
5.993515	0.204	8811181.390024
5.996917	0.2041	9045980.087683
6.000318	0.2041	8967978.777586
6.003718	0.204	9011036.936965
6.007120	0.2041	9298859.269886
6.010520	0.204	9098148.306627
6.013922	0.2041	8959110.689443
6.017323	0.2041	9199711.802276
6.020723	0.204	9131185.394139
6.024125	0.2041	8942208.303389
6.027525	0.204	8882292.579010
6.030927	0.2041	8921009.281806
6.034328	0.2041	9021522.984503
6.037728	0.204	9103722.749722
6.041130	0.2041	9126875.059308
6.044530	0.204	9021781.771233
6.047932	0.2041	8951602.544928
6.051333	0.2041	8847792.348796
6.054733	0.204	8821781.379563
6.058135	0.2041	8848816.411405
6.061537	0.2041	8843592.018650
6.064937	0.204	8978367.246412
6.068338	0.2041	9117493.258129
6.071738	0.204	9058731.118756
6.075140	0.2041	9007339.498187
6.078542	0.2041	9187110.905316
6.081942	0.204	9164629.249807
6.085343	0.2041	9122558.104551
6.088743	0.204	8972683.536143
6.092145	0.2041	8893265.503227
6.095547	0.2041	9038580.937432
6.098947	0.204	9008709.251038
6.102348	0.2041	9104226.576492
6.105748	0.204	9192036.292799
6.109150	0.2041	9164229.449004
6.112552	0.2041	9046113.883058
6.115952	0.204	8995564.124559
6.119353	0.2041	9113540.567464
6.122755	0.2041	9017837.709114
6.126155	0.204	9013665.436497
6.129557	0.2041	9098856.137242
6.132957	0.204	9032958.204412
6.136358	0.2041	9235744.831802
6.139760	0.2041	9301275.071474
6.143160	0.204	8988460.585443
6.146562	0.2041	8829398.160433
6.149962	0.204	8877507.088919
6.153363	0.2041	8976923.355305
6.156765	0.2041	9057088.563714
6.160165	0.204	9099504.494149
6.163567	0.2041	9115923.711840
6.166967	0.204	9103879.760791
6.170368	0.2041	9010791.977936
6.173770	0.2041	8930830.092441
6.177170	0.204	9138745.186556
6.180572	0.2041	9143338.051039
6.183972	0.204	8999960.073920
6.187373	0.2041	9074563.534194
6.190775	0.2041	9146007.974435
6.194175	0.204	8938437.492738
6.197577	0.2041	8773492.924214
6.200978	0.2041	9024453.701855
6.204378	0.204	9064166.981772
6.207780	0.2041	9152475.496038
6.211180	0.204	9335321.862210
6.214582	0.2041	8986224.761112
6.217983	0.2041	9052283.629689
6.221383	0.204	9274800.251104
6.224785	0.2041	8978599.505612
6.228185	0.204	9092804.934900
6.231587	0.2041	9269742.361312
6.234988	0.2041	9112562.358550
6.238388	0.204	9105902.667603
6.241790	0.2041	8986031.980069
6.245190	0.204	8723359.888814
6.248592	0.2041	8815767.071559
6.251993	0.2041	8846046.681083
6.255393	0.204	8801217.297937
6.258795	0.2041	8988111.645027
6.262197	0.2041	9015038.558828
6.265597	0.204	9097763.206949
6.268998	0.2041	9160678.492210
6.272398	0.204	8935100.328348
6.275800	0.2041	8811137.136339
6.279202	0.2041	8906340.898629
6.282602	0.204	8978808.283171
6.286003	0.2041	8984894.131686
6.289403	0.204	9086035.239747
6.292805	0.2041	9149373.167380
6.296207	0.2041	9002564.224146
6.299607	0.204	8957433.793996
6.303008	0.2041	8879646.698962
6.306408	0.204	8797392.902087
6.309810	0.2041	9011413.055694
6.313212	0.2041	9079647.110871
6.316612	0.204	8984613.509858
6.320013	0.2041	9001447.256940
6.323413	0.204	9090924.575570
6.326815	0.2041	9157260.349749
6.330217	0.2041	9070764.444950
6.333617	0.204	9079092.653396
6.337018	0.2041	9103401.706091
6.340420	0.2041	8940625.234740
6.343820	0.204	9028902.607106
6.347222	0.2041	9196226.704551
6.350622	0.204	9101640.325651
6.354023	0.2041	9021905.109398
6.357425	0.2041	9035338.936427
6.360825	0.204	9172572.061506
6.364227	0.2041	8978518.628402
6.367627	0.204	8782395.302976
6.371028	0.2041	9087212.757019
6.374430	0.2041	9164997.491885
6.377830	0.204	9098011.497512
6.381232	0.2041	8869986.145712
6.384632	0.204	8870164.341531
6.388033	0.2041	9157375.572228
6.391435	0.2041	9042625.193767
6.394835	0.204	9065253.440493
6.398237	0.2041	9133762.230375
6.401638	0.2041	8973047.422119
6.405038	0.204	8929736.640437
6.408440	0.2041	9038240.823707
6.411840	0.204	9046074.117149
6.415242	0.2041	9301226.337475
6.418643	0.2041	9419746.947754
6.422043	0.204	9022559.322114
6.425445	0.2041	8932986.074524
6.428845	0.204	9053488.045769
6.432247	0.2041	8903025.652708
6.435648	0.2041	8955169.374461
6.439048	0.204	9292381.138968
6.442450	0.2041	9249615.512547
6.445850	0.204	9016747.201099
6.449252	0.2041	8809347.626249
6.452653	0.2041	9072560.699923
6.456053	0.204	9395598.969793
6.459455	0.2041	9090352.262896
6.462857	0.2041	9102045.314358
6.466257	0.204	9260589.933684
6.469658	0.2041	9254171.931008
6.473058	0.204	9324083.149181
6.476460	0.2041	9224292.742388
6.479862	0.2041	9051865.816690
6.483262	0.204	9237433.072310
6.486663	0.2041	9308053.868454
6.490063	0.204	9193330.589028
6.493465	0.2041	9165103.485446
6.496867	0.2041	8988234.949041
6.500267	0.204	9246059.249804
6.503668	0.2041	9522060.178395
6.507068	0.204	9353722.954494
6.510470	0.2041	9272408.734128
6.513872	0.2041	9191298.662160
6.517272	0.204	9022089.931338
6.520673	0.2041	9172966.489482
6.524073	0.204	9331737.040339
6.527475	0.2041	9191796.151739
6.530877	0.2041	9182966.879642
6.534277	0.204	9122637.575445
6.537678	0.2041	9050605.035143
6.541080	0.2041	9124641.686137
6.544480	0.204	9022831.449744
6.547882	0.2041	8834035.038268
6.551282	0.204	8959085.090271
6.554683	0.2041	9162824.747766
6.558085	0.2041	9200763.938634
6.561485	0.204	9140027.682692
6.564887	0.2041	9070334.281781
6.568287	0.204	9183045.305236
6.571688	0.2041	9290681.602646
6.575090	0.2041	9350814.958927
6.578490	0.204	9216043.131259
6.581892	0.2041	9167521.877895
6.585292	0.204	9404534.013889
6.588693	0.2041	9329541.783443
6.592095	0.2041	9211203.286277
6.595495	0.204	9083866.281376
6.598897	0.2041	8885960.987019
6.602298	0.2041	9026541.292105
6.605698	0.204	9133973.691466
6.609100	0.2041	9122105.596791
6.612500	0.204	9034106.694089
6.615902	0.2041	8967709.540888
6.619303	0.2041	9021976.770876
6.622703	0.204	9215265.051302
6.626105	0.2041	9300364.263435
6.629505	0.204	9026455.149219
6.632907	0.2041	9038395.612620
6.636308	0.2041	8967752.374109
6.639708	0.204	8866621.681494
6.643110	0.2041	9219848.127797
6.646510	0.204	9279608.258076
6.649912	0.2041	9045348.165059
6.653313	0.2041	9053558.475961
6.656713	0.204	9240017.792041
6.660115	0.2041	9196494.976425
6.663515	0.204	9097213.590104
6.666917	0.2041	9023321.618478
6.670318	0.2041	8912915.408865
6.673718	0.204	8992159.441143
6.677120	0.2041	8871723.090625
6.680522	0.2041	9011086.315905
6.683922	0.204	9282490.234811
6.687323	0.2041	9019400.467548
6.690723	0.204	8850409.252120
6.694125	0.2041	8868516.498276
6.697527	0.2041	8816989.327197
6.700927	0.204	8792716.090140
6.704328	0.2041	8926537.826422
6.707728	0.204	9064660.033178
6.711130	0.2041	9306230.826119
6.714532	0.2041	9237842.627169
6.717932	0.204	8857220.283696
6.721333	0.2041	8926205.849473
6.724733	0.204	8991776.412721
6.728135	0.2041	8790038.047950
6.731537	0.2041	8816340.481509
6.734937	0.204	8911300.955217
6.738338	0.2041	8808345.078679
6.741740	0.2041	8752825.767447
6.745140	0.204	8959962.511883
6.748542	0.2041	9045900.442485
6.751942	0.204	8932707.183664
6.755343	0.2041	9072648.443748
6.758745	0.2041	9014129.413883
6.762145	0.204	8987267.122264
6.765547	0.2041	9034180.858588
6.768947	0.204	8948675.153615
6.772348	0.2041	8892222.489752
6.775750	0.2041	8805965.816974
6.779150	0.204	9036282.697059
6.782552	0.2041	9123601.106160
6.785952	0.204	9155175.863311
6.789353	0.2041	9141720.657229
6.792755	0.2041	8876201.773953
6.796155	0.204	8719795.392127
6.799557	0.2041	8694124.796054
6.802958	0.2041	8947239.797038
6.806358	0.204	9141170.315607
6.809760	0.2041	9080239.947036
6.813160	0.204	8937376.160345
6.816562	0.2041	8946845.049362
6.819963	0.2041	8956766.921597
6.823363	0.204	9031253.620954
6.826765	0.2041	9123385.048226
6.830165	0.204	9145875.237514
6.833567	0.2041	9079595.989179
6.836968	0.2041	8991130.187274
6.840368	0.204	8880736.437546
6.843770	0.2041	8770904.249607
6.847170	0.204	9008212.711704
6.850572	0.2041	9139960.858804
6.853973	0.2041	9013836.737282
6.857373	0.204	8960026.444137
6.860775	0.2041	9232463.101752
6.864175	0.204	9194152.730282
6.867577	0.2041	9058580.816141
6.870978	0.2041	9171638.896513
6.874378	0.204	8974841.207484
6.877780	0.2041	8878503.858944
6.881182	0.2041	8952463.913495
6.884582	0.204	8924207.394893
6.887983	0.2041	8826411.141599
6.891383	0.204	8937772.834641
6.894785	0.2041	9035949.668176
6.898187	0.2041	8948970.412472
6.901587	0.204	8980899.768253
6.904988	0.2041	8883505.234417
6.908388	0.204	8944461.083613
6.911790	0.2041	9203080.190640
6.915192	0.2041	9107210.960585
6.918592	0.204	8894462.983199
6.921993	0.2041	8966866.008940
6.925393	0.204	9081723.752326
6.928795	0.2041	8985572.613897
6.932197	0.2041	8955578.079126
6.935597	0.204	9164562.930469
6.938998	0.2041	9083130.779834
6.942400	0.2041	8870498.068387
6.945800	0.204	9032553.808401
6.949202	0.2041	8983224.291873
6.952602	0.204	9017965.768557
6.956003	0.2041	9077552.889296
6.959405	0.2041	8828003.400030
6.962805	0.204	9056418.778985
6.966207	0.2041	9053924.418659
6.969607	0.204	8930411.956053
6.973008	0.2041	9249051.112510
6.976410	0.2041	9037986.125290
6.979810	0.204	8803644.693564
6.983212	0.2041	8970964.480637
6.986612	0.204	8894628.873592
6.990013	0.2041	8906080.395699
6.993415	0.2041	9015328.230915
6.996815	0.204	9184678.269899
