URL	chrom://isq7ci2006004/ChromeleonLocal/Instrument Data/Aspuru-Guzik/Stanley/2024_12_16_005c-H.seq/306.smp/MSDevice.xraw
Channel	TIC

Injection Information:
Data Vault	ChromeleonLocal
Sequence	2024_12_16_005c-H
Name	005c-H3F_conc
Number	7
Position	5
Comment	
Processing Method	Basic Quantitative
Instrument Method	2024_12_16_005c-H - Copy
Type	Unknown
Status	Finished
Inject Time	12/16/2024 3:47:11 PM -05:00
Volume (µl)	3.0000
Dilution Factor	1.0000
Weight	1.0000

Raw Data Information:
Data Points	264
Mass Min. (m/z)	150.000000
Mass Max. (m/z)	399.968075
Retention Time (min)	3.527597
Mass Resolution	0.500000
Tolerance Unit	Amu
Scan Number	303
Scan Type	+ c EI Full ms [150.00-400.00]
Is Centroid Scan	True
Base Peak Mass	207.005798
Base Peak Intensity	770130.250000
Total Ion Count	6064424.032836

Raw Data:
Mass (m/z)	Value (counts)
150.1	1510.083496
151.0	48412.585938
152.0	11635.881836
153.1	85905.296875
153.9	9355.690430
154.5	8384.776367
155.2	5849.502441
156.3	9681.122070
157.1	12616.100586
159.0	419796.812500
160.0	168088.500000
161.1	34587.242188
161.8	9449.180664
162.8	15446.604492
163.5	13956.778320
164.1	22886.824219
165.0	44999.437500
166.0	23972.152344
167.0	11662.046875
168.4	4952.191406
169.2	3025.278809
170.1	1267.694702
171.0	24498.580078
172.0	214398.734375
173.0	308668.906250
174.1	33124.175781
174.8	4445.219238
175.4	1584.548462
176.8	53175.843750
177.7	7268.466309
178.4	13724.687500
179.1	20665.619141
180.4	3564.142822
181.3	3500.656982
182.0	1865.553345
182.9	10479.812500
183.7	3407.409912
184.8	24671.777344
185.7	35587.320313
186.6	40432.988281
187.2	64052.789063
188.1	20384.130859
189.1	10728.612305
190.0	1041.572266
190.9	108653.367188
192.1	14326.411133
193.0	69545.703125
194.0	17299.625000
195.1	12968.804688
195.9	4091.521729
196.9	6655.697754
197.9	10260.832031
198.9	32508.812500
200.0	12222.400391
201.1	22217.152344
202.0	3827.176270
202.7	4779.939941
204.1	3076.429688
204.8	17785.712891
205.3	16799.562500
206.2	1992.449829
207.0	770130.250000
208.1	143418.359375
209.1	98508.710938
210.1	14160.630859
211.1	10794.772461
212.3	2619.993408
213.2	6357.297363
214.3	6150.849609
214.9	4072.447998
216.0	1579.484619
216.6	16.117634
217.4	604.148743
218.0	4178.433105
218.8	5208.693359
220.2	7224.329102
221.0	113130.375000
221.6	4263.579590
222.4	23656.583984
223.1	21464.886719
224.0	1822.529541
225.0	954.593445
226.0	2132.940186
227.1	4958.618652
228.2	7033.547363
229.1	10502.098633
230.1	110678.539063
231.1	18059.328125
231.8	959.939148
233.1	3559.364258
233.6	138.600830
234.8	9980.740234
235.3	5770.144531
236.2	3043.646240
237.1	3077.205078
237.8	6481.522949
238.6	3436.527100
239.1	7928.282227
239.7	168.730011
240.9	4407.834961
241.5	0.940583
242.4	1472.398926
243.3	4496.571777
244.1	2120.966309
244.9	843.877136
245.9	2880.187012
247.2	2616.228516
248.0	1663.426025
248.9	28855.535156
250.0	11263.115234
250.9	29457.806641
252.0	2831.474121
253.0	57913.089844
253.9	16117.515625
254.7	8752.000977
255.3	2759.222656
256.3	10895.560547
257.2	2400.716797
259.0	9579.468750
259.8	109.185982
261.1	9928.814453
262.2	6856.715820
262.9	525.072815
264.1	23827.576172
265.0	46479.742188
266.3	22930.365234
267.1	66983.062500
268.1	15835.961914
268.9	26480.146484
269.8	3349.055664
270.9	3459.415771
271.7	39.823864
273.3	1791.169800
275.0	2783.489502
276.5	269.026123
277.2	2153.460938
277.9	89.130630
278.6	2379.691650
279.4	4267.145996
280.2	5209.366699
281.1	419334.812500
282.1	83252.101563
283.0	92013.570313
284.1	13426.972656
285.0	6856.354980
286.0	108.854195
286.6	0.956401
287.4	566.450439
288.6	0.147971
289.4	0.963447
290.2	0.000002
290.8	121.340454
291.5	1733.133301
293.0	2104.897705
294.1	1007.254089
294.9	23630.431641
295.5	4102.950195
296.1	9017.916992
296.9	10887.265625
297.4	909.610840
298.0	5404.782227
298.9	3431.733887
299.9	1860.259644
300.9	886.382629
301.8	66.903770
303.1	3524.582275
304.0	42.140011
305.0	508.499786
305.9	2542.188232
307.2	2516.850586
307.9	28.820076
308.6	77.395531
309.4	2190.572266
310.9	6316.954590
311.8	778.633667
313.1	12498.264648
313.7	443.074341
315.1	70195.304688
316.3	20911.517578
317.2	2.810280
318.3	2.416179
319.1	194.737335
320.3	0.161769
321.0	465.059753
322.8	3795.394043
323.5	1027.101685
324.9	27510.193359
326.2	15186.615234
327.0	82227.132813
328.0	24974.841797
328.9	26462.167969
329.9	1699.188232
331.0	21720.011719
332.1	15755.474609
333.2	7067.465820
334.1	233767.312500
335.2	46123.707031
336.2	7982.491211
337.1	826.367859
338.8	16647.419922
339.8	8944.311523
341.0	110791.023438
341.9	34705.722656
342.9	34049.207031
343.9	12007.082031
344.8	2369.305176
345.9	8418.607422
346.7	1800.272095
347.4	1724.429932
348.2	18.310503
349.1	84.590096
350.0	0.622023
350.9	2389.710205
352.7	2253.236816
353.5	761.955688
354.2	4373.338379
355.0	142418.234375
356.0	60038.515625
357.0	28706.835938
357.8	5147.784180
358.3	9843.371094
359.1	4280.730469
360.0	1206.600220
361.2	66.456200
361.9	0.000454
362.5	0.000622
364.1	168.749420
364.7	24.325800
366.2	186.142105
366.7	457.906982
367.5	25.509737
369.0	7683.237793
370.3	6836.664551
371.4	6229.791504
371.9	17.907894
372.8	7382.307617
373.4	2352.422119
374.2	2836.351074
375.0	5149.562012
376.0	1773.938721
377.0	2713.039307
378.9	14.700466
379.8	0.009445
380.9	75.768570
381.8	624.581299
382.8	16501.535156
384.1	7739.139648
385.0	12015.223633
386.0	5791.723633
386.7	3771.037354
387.4	1076.632324
388.2	2994.223145
389.0	7974.798828
390.0	1311.462524
391.2	5615.798828
392.1	5.026253
393.3	0.145581
394.3	622.947937
395.0	47.966801
395.9	7.387187
397.1	1362.834839
397.9	1514.215210
398.9	20040.826172
399.9	5311.891113
