URL	chrom://isq7ci2006004/ChromeleonLocal/Instrument Data/Aspuru-Guzik/Stanley/2024_12_16_005c-H.seq/306.smp/MS_F1_[364.0-364.3].channel/MS_F1_[364.0-364.3].chm
Channel	MS_F1_[364.0-364.3]

Injection Information:
Data Vault	ChromeleonLocal
Sequence	2024_12_16_005c-H
Name	005c-H3F_conc
Number	7
Position	5
Comment	
Processing Method	Basic Quantitative
Instrument Method	2024_12_16_005c-H - Copy
Type	Unknown
Status	Finished
Inject Time	12/16/2024 3:47:11 PM -05:00
Volume (µl)	3.0000
Dilution Factor	1.0000
Weight	1.0000

Chromatogram Data Information:
Time Min. (min)	2.500490
Time Max. (min)	6.996633
Data Points	1323
Detector	MSDevice
Generating Data System	Chromeleon 7.3 Build 60919 (5efd55c28726aa174740e3ad3b435409b51aa6a1)
Exporting Data System	Chromeleon 7.3.0.0
Operator	aspuruguzik
Signal Quantity	Intensity
Signal Unit	counts
Signal Min.	0.000000
Signal Max.	12664.539063
Channel	MS_F1_[364.0-364.3]
Driver Name	Thermo.MassSpectrometer
Channel Type	Evaluation
Min. Step (s)	0.204
Max. Step (s)	0.2041
Average Step (s)	0.20406097

Signal Parameter Information:
Signal Info	

Chromatogram Data:
Time (min)	Step (s)	Value (counts)
2.500490	n.a.	0.000000
2.503890	0.204	0.000000
2.507292	0.2041	0.000000
2.510692	0.204	0.000000
2.514093	0.2041	0.000000
2.517495	0.2041	0.000000
2.520895	0.204	0.000000
2.524297	0.2041	0.000000
2.527698	0.2041	0.000000
2.531098	0.204	0.000000
2.534500	0.2041	0.000000
2.537900	0.204	0.000000
2.541302	0.2041	0.000000
2.544703	0.2041	0.000000
2.548103	0.204	0.000000
2.551505	0.2041	0.000000
2.554905	0.204	0.000000
2.558307	0.2041	0.000000
2.561708	0.2041	0.000000
2.565108	0.204	0.000000
2.568510	0.2041	716.186279
2.571910	0.204	816.892151
2.575312	0.2041	0.000000
2.578713	0.2041	0.000000
2.582113	0.204	0.000000
2.585515	0.2041	0.000000
2.588917	0.2041	0.000000
2.592317	0.204	0.000000
2.595718	0.2041	0.000000
2.599118	0.204	0.000000
2.602520	0.2041	0.000000
2.605922	0.2041	0.000000
2.609322	0.204	0.000000
2.612723	0.2041	0.000000
2.616123	0.204	0.000000
2.619525	0.2041	0.000000
2.622927	0.2041	0.000000
2.626327	0.204	0.000000
2.629728	0.2041	0.000000
2.633128	0.204	0.000000
2.636530	0.2041	0.000000
2.639932	0.2041	0.000000
2.643332	0.204	0.000000
2.646733	0.2041	0.000000
2.650133	0.204	0.000000
2.653535	0.2041	0.000000
2.656937	0.2041	0.000000
2.660337	0.204	0.000000
2.663738	0.2041	0.000000
2.667140	0.2041	0.000000
2.670540	0.204	0.000000
2.673942	0.2041	0.000000
2.677342	0.204	0.000000
2.680743	0.2041	0.000000
2.684145	0.2041	0.000000
2.687545	0.204	416.259308
2.690947	0.2041	371.184601
2.694347	0.204	0.000000
2.697748	0.2041	0.000000
2.701150	0.2041	30.380890
2.704550	0.204	0.000000
2.707952	0.2041	0.000000
2.711352	0.204	0.000000
2.714753	0.2041	0.000000
2.718155	0.2041	0.021697
2.721555	0.204	0.000000
2.724957	0.2041	0.092384
2.728357	0.204	0.000000
2.731758	0.2041	0.000000
2.735160	0.2041	0.000000
2.738560	0.204	0.000000
2.741962	0.2041	0.000652
2.745363	0.2041	0.000000
2.748763	0.204	0.000000
2.752165	0.2041	0.000000
2.755565	0.204	0.000000
2.758967	0.2041	0.000000
2.762368	0.2041	0.000000
2.765768	0.204	0.000007
2.769170	0.2041	0.000000
2.772570	0.204	0.000000
2.775972	0.2041	0.000000
2.779373	0.2041	0.000000
2.782773	0.204	0.000000
2.786175	0.2041	0.000000
2.789575	0.204	0.000000
2.792977	0.2041	5263.637207
2.796378	0.2041	6003.698730
2.799778	0.204	0.000000
2.803180	0.2041	0.000000
2.806582	0.2041	636.891785
2.809982	0.204	0.000000
2.813383	0.2041	234.240860
2.816783	0.204	0.000000
2.820185	0.2041	28.832106
2.823587	0.2041	0.000000
2.826987	0.204	0.000000
2.830388	0.2041	4.744317
2.833788	0.204	0.000000
2.837190	0.2041	1.400358
2.840592	0.2041	0.000000
2.843992	0.204	0.121117
2.847393	0.2041	0.017761
2.850793	0.204	0.000000
2.854195	0.2041	0.033272
2.857597	0.2041	0.000000
2.860997	0.204	0.000000
2.864398	0.2041	0.000000
2.867798	0.204	0.000372
2.871200	0.2041	0.000000
2.874602	0.2041	0.000000
2.878002	0.204	0.000223
2.881403	0.2041	0.000000
2.884805	0.2041	0.000000
2.888205	0.204	0.000000
2.891607	0.2041	0.000000
2.895007	0.204	0.000000
2.898408	0.2041	0.000000
2.901810	0.2041	0.000001
2.905210	0.204	0.000000
2.908612	0.2041	0.000000
2.912012	0.204	0.000000
2.915413	0.2041	0.000000
2.918815	0.2041	0.000000
2.922215	0.204	597.216492
2.925617	0.2041	680.623840
2.929017	0.204	0.000000
2.932418	0.2041	0.000000
2.935820	0.2041	67.007271
2.939220	0.204	0.000000
2.942622	0.2041	0.000000
2.946023	0.2041	0.000000
2.949423	0.204	0.000000
2.952825	0.2041	0.000000
2.956225	0.204	0.000000
2.959627	0.2041	0.491224
2.963028	0.2041	0.000000
2.966428	0.204	0.000000
2.969830	0.2041	0.000000
2.973230	0.204	0.000000
2.976632	0.2041	0.000000
2.980033	0.2041	0.000000
2.983433	0.204	0.000000
2.986835	0.2041	0.000000
2.990235	0.204	0.000000
2.993637	0.2041	0.000000
2.997038	0.2041	0.000000
3.000438	0.204	0.000000
3.003840	0.2041	0.000000
3.007240	0.204	0.000000
3.010642	0.2041	0.000000
3.014043	0.2041	0.000000
3.017443	0.204	0.000000
3.020845	0.2041	134.010132
3.024247	0.2041	153.494156
3.027647	0.204	0.000000
3.031048	0.2041	0.000000
3.034448	0.204	16.219360
3.037850	0.2041	0.000000
3.041252	0.2041	5.989375
3.044652	0.204	0.000000
3.048053	0.2041	0.736729
3.051453	0.204	0.000000
3.054855	0.2041	0.000000
3.058257	0.2041	0.120816
3.061657	0.204	0.000000
3.065058	0.2041	0.035794
3.068458	0.204	0.000000
3.071860	0.2041	0.000000
3.075262	0.2041	0.000000
3.078662	0.204	0.089091
3.082063	0.2041	0.035137
3.085465	0.2041	0.000000
3.088865	0.204	0.035625
3.092267	0.2041	0.000000
3.095667	0.204	0.007751
3.099068	0.2041	0.000000
3.102470	0.2041	0.000160
3.105870	0.204	0.000398
3.109272	0.2041	0.000000
3.112672	0.204	0.000000
3.116073	0.2041	0.000000
3.119475	0.2041	0.000000
3.122875	0.204	0.000000
3.126277	0.2041	0.000000
3.129677	0.204	0.000000
3.133078	0.2041	0.000000
3.136480	0.2041	2196.814209
3.139880	0.204	2500.911865
3.143282	0.2041	0.000000
3.146682	0.204	0.000000
3.150083	0.2041	265.444305
3.153485	0.2041	1.347069
3.156885	0.204	0.000000
3.160287	0.2041	0.335874
3.163688	0.2041	18.219107
3.167088	0.204	0.017648
3.170490	0.2041	0.000000
3.173890	0.204	1.976562
3.177292	0.2041	0.009074
3.180693	0.2041	0.000000
3.184093	0.204	0.001865
3.187495	0.2041	0.000000
3.190895	0.204	0.007461
3.194297	0.2041	80.089798
3.197698	0.2041	89.958145
3.201098	0.204	0.000000
3.204500	0.2041	0.000000
3.207900	0.204	9.540237
3.211302	0.2041	0.000000
3.214703	0.2041	157.852280
3.218103	0.204	175.409515
3.221505	0.2041	0.000000
3.224907	0.2041	0.000000
3.228307	0.204	19.012468
3.231708	0.2041	0.000000
3.235108	0.204	0.000000
3.238510	0.2041	0.000000
3.241912	0.2041	0.841492
3.245312	0.204	0.000000
3.248713	0.2041	0.000000
3.252113	0.204	0.000000
3.255515	0.2041	0.000000
3.258917	0.2041	0.000000
3.262317	0.204	0.000000
3.265718	0.2041	0.000000
3.269118	0.204	0.000000
3.272520	0.2041	0.000000
3.275922	0.2041	0.000000
3.279322	0.204	0.000000
3.282723	0.2041	0.000000
3.286125	0.2041	0.000000
3.289525	0.204	0.000000
3.292927	0.2041	0.000000
3.296327	0.204	0.000000
3.299728	0.2041	0.000000
3.303130	0.2041	1156.049316
3.306530	0.204	1369.822754
3.309932	0.2041	0.000000
3.313332	0.204	0.000000
3.316733	0.2041	140.154160
3.320135	0.2041	4.839272
3.323535	0.204	0.000000
3.326937	0.2041	1.659058
3.330337	0.204	0.000000
3.333738	0.2041	0.202411
3.337140	0.2041	0.000000
3.340540	0.204	0.000000
3.343942	0.2041	0.033765
3.347342	0.204	0.000000
3.350743	0.2041	0.000000
3.354145	0.2041	0.000000
3.357545	0.204	904.341003
3.360947	0.2041	2427.432373
3.364348	0.2041	4330.567383
3.367748	0.204	3907.304443
3.371150	0.2041	2480.216553
3.374550	0.204	4467.981445
3.377952	0.2041	5384.181641
3.381353	0.2041	0.000000
3.384753	0.204	0.000000
3.388155	0.2041	894.337219
3.391555	0.204	180.377686
3.394957	0.2041	1159.739136
3.398358	0.2041	1221.712036
3.401758	0.204	0.000000
3.405160	0.2041	0.000000
3.408560	0.204	227.794388
3.411962	0.2041	62.601151
3.415363	0.2041	0.000000
3.418763	0.204	0.000000
3.422165	0.2041	15.629535
3.425567	0.2041	0.000000
3.428967	0.204	0.000000
3.432368	0.2041	0.000000
3.435768	0.204	1038.355591
3.439170	0.2041	1184.328735
3.442572	0.2041	0.000000
3.445972	0.204	0.000000
3.449373	0.2041	125.591286
3.452773	0.204	0.000000
3.456175	0.2041	46.197624
3.459577	0.2041	0.000000
3.462977	0.204	5.685247
3.466378	0.2041	0.000000
3.469778	0.204	668.550781
3.473180	0.2041	764.546021
3.476582	0.2041	0.000000
3.479982	0.204	0.000000
3.483383	0.2041	80.907379
3.486783	0.204	0.000000
3.490185	0.2041	29.926128
3.493587	0.2041	0.000000
3.496987	0.204	3.671705
3.500388	0.2041	0.000000
3.503790	0.2041	0.000000
3.507190	0.204	0.602937
3.510592	0.2041	0.000000
3.513992	0.204	955.981384
3.517393	0.2041	1590.410156
3.520795	0.2041	0.000000
3.524195	0.204	0.000000
3.527597	0.2041	168.749420
3.530997	0.204	39.685783
3.534398	0.2041	190.507889
3.537800	0.2041	0.000000
3.541200	0.204	0.000000
3.544602	0.2041	1174.733887
3.548002	0.204	1313.929688
3.551403	0.2041	0.000000
3.554805	0.2041	0.000000
3.558205	0.204	0.000000
3.561607	0.2041	0.000150
3.565008	0.2041	0.000000
3.568408	0.204	0.000000
3.571810	0.2041	0.000012
3.575210	0.204	0.000000
3.578612	0.2041	0.000000
3.582013	0.2041	0.000000
3.585413	0.204	0.000000
3.588815	0.2041	0.000000
3.592215	0.204	0.000000
3.595617	0.2041	0.000000
3.599018	0.2041	1432.025635
3.602418	0.204	3322.081299
3.605820	0.2041	1908.757935
3.609220	0.204	0.000000
3.612622	0.2041	169.087814
3.616023	0.2041	0.000000
3.619423	0.204	0.000000
3.622825	0.2041	64.648674
3.626225	0.204	0.000000
3.629627	0.2041	399.102325
3.633028	0.2041	0.000000
3.636428	0.204	76.036644
3.639830	0.2041	0.000000
3.643232	0.2041	0.000000
3.646632	0.204	10.939463
3.650033	0.2041	0.000000
3.653433	0.204	0.629571
3.656835	0.2041	0.000000
3.660237	0.2041	0.000000
3.663637	0.204	0.000000
3.667038	0.2041	0.000000
3.670438	0.204	0.051300
3.673840	0.2041	0.000000
3.677242	0.2041	0.000000
3.680642	0.204	0.000000
3.684043	0.2041	0.000000
3.687443	0.204	0.000000
3.690845	0.2041	0.000000
3.694247	0.2041	0.000000
3.697647	0.204	0.000000
3.701048	0.2041	1044.103516
3.704450	0.2041	1469.346313
3.707850	0.204	0.000000
3.711252	0.2041	1242.519287
3.714652	0.204	3724.598389
3.718053	0.2041	0.000000
3.721455	0.2041	0.000000
3.724855	0.204	5729.071289
3.728257	0.2041	0.000000
3.731657	0.204	0.000000
3.735058	0.2041	3555.200439
3.738460	0.2041	0.000000
3.741860	0.204	0.000000
3.745262	0.2041	1358.787354
3.748662	0.204	0.000000
3.752063	0.2041	0.000000
3.755465	0.2041	267.044128
3.758865	0.204	0.000000
3.762267	0.2041	0.000000
3.765667	0.204	0.000000
3.769068	0.2041	6.132426
3.772470	0.2041	2.251765
3.775870	0.204	0.000000
3.779272	0.2041	0.000000
3.782673	0.2041	0.000000
3.786073	0.204	0.000000
3.789475	0.2041	0.000000
3.792875	0.204	0.000000
3.796277	0.2041	0.000000
3.799678	0.2041	4327.131348
3.803078	0.204	0.000000
3.806480	0.2041	345.012939
3.809880	0.204	284.289154
3.813282	0.2041	0.000000
3.816683	0.2041	0.000000
3.820083	0.204	0.000000
3.823485	0.2041	0.000000
3.826885	0.204	243.962540
3.830287	0.2041	150.697815
3.833688	0.2041	0.000000
3.837088	0.204	0.000000
3.840490	0.2041	0.000000
3.843892	0.2041	0.000000
3.847292	0.204	0.000000
3.850693	0.2041	0.000000
3.854093	0.204	0.796357
3.857495	0.2041	0.000000
3.860897	0.2041	0.000000
3.864297	0.204	4022.072998
3.867698	0.2041	4057.170410
3.871098	0.204	0.000000
3.874500	0.2041	0.000000
3.877902	0.2041	228.330002
3.881302	0.204	0.000000
3.884703	0.2041	86.913513
3.888103	0.204	203.677200
3.891505	0.2041	966.825256
3.894907	0.2041	1451.342163
3.898307	0.204	0.000000
3.901708	0.2041	0.000000
3.905108	0.204	0.000000
3.908510	0.2041	0.000000
3.911912	0.2041	2726.711426
3.915312	0.204	3077.638184
3.918713	0.2041	0.000000
3.922115	0.2041	0.000000
3.925515	0.204	325.556824
3.928917	0.2041	0.000000
3.932317	0.204	0.000000
3.935718	0.2041	0.000000
3.939120	0.2041	30.133764
3.942520	0.204	0.000000
3.945922	0.2041	0.000000
3.949322	0.204	0.000000
3.952723	0.2041	0.000000
3.956125	0.2041	0.000000
3.959525	0.204	0.000000
3.962927	0.2041	0.000000
3.966327	0.204	0.000000
3.969728	0.2041	0.000000
3.973130	0.2041	2671.607422
3.976530	0.204	3581.101807
3.979932	0.2041	5657.441406
3.983333	0.2041	8328.100586
3.986733	0.204	10543.000977
3.990135	0.2041	12664.539063
3.993535	0.204	8584.223633
3.996937	0.2041	2337.915039
4.000338	0.2041	0.000000
4.003738	0.204	0.000000
4.007140	0.2041	0.000000
4.010540	0.204	0.000000
4.013942	0.2041	0.000000
4.017343	0.2041	75.110985
4.020743	0.204	0.000000
4.024145	0.2041	6.772017
4.027545	0.204	0.000000
4.030947	0.2041	0.000000
4.034348	0.2041	0.000000
4.037748	0.204	0.000000
4.041150	0.2041	0.427603
4.044552	0.2041	0.000000
4.047952	0.204	0.000000
4.051353	0.2041	0.000000
4.054753	0.204	0.000000
4.058155	0.2041	0.000000
4.061557	0.2041	0.000000
4.064957	0.204	0.000000
4.068358	0.2041	0.000000
4.071758	0.204	0.000000
4.075160	0.2041	0.000000
4.078562	0.2041	0.000000
4.081962	0.204	0.000000
4.085363	0.2041	0.000000
4.088763	0.204	0.000000
4.092165	0.2041	0.000000
4.095567	0.2041	0.000000
4.098967	0.204	0.000000
4.102368	0.2041	0.000000
4.105768	0.204	0.000000
4.109170	0.2041	0.000000
4.112572	0.2041	0.000000
4.115972	0.204	0.000000
4.119373	0.2041	0.000000
4.122775	0.2041	0.000000
4.126175	0.204	0.000000
4.129577	0.2041	0.000000
4.132977	0.204	1473.306885
4.136378	0.2041	591.819092
4.139780	0.2041	0.000000
4.143180	0.204	0.000000
4.146582	0.2041	0.000000
4.149982	0.204	0.000000
4.153383	0.2041	23.132900
4.156785	0.2041	572.672668
4.160185	0.204	0.000000
4.163587	0.2041	0.000000
4.166987	0.204	0.000000
4.170388	0.2041	1107.170776
4.173790	0.2041	0.000000
4.177190	0.204	4255.303223
4.180592	0.2041	3690.754639
4.183993	0.2041	2396.683105
4.187393	0.204	0.000000
4.190795	0.2041	1704.283936
4.194195	0.204	2808.923096
4.197597	0.2041	0.000000
4.200998	0.2041	0.000000
4.204398	0.204	1752.498657
4.207800	0.2041	0.000000
4.211200	0.204	0.000000
4.214602	0.2041	0.000000
4.218003	0.2041	1078.568848
4.221403	0.204	886.270447
4.224805	0.2041	0.000000
4.228205	0.204	0.000000
4.231607	0.2041	150.136368
4.235008	0.2041	0.000000
4.238408	0.204	0.000000
4.241810	0.2041	0.000000
4.245210	0.204	0.000000
4.248612	0.2041	0.000000
4.252013	0.2041	0.000000
4.255413	0.204	0.000000
4.258815	0.2041	0.000000
4.262217	0.2041	0.237922
4.265617	0.204	0.000000
4.269018	0.2041	0.016138
4.272418	0.204	0.000000
4.275820	0.2041	0.000000
4.279222	0.2041	0.000000
4.282622	0.204	0.000000
4.286023	0.2041	1183.524536
4.289423	0.204	1350.023804
4.292825	0.2041	0.000042
4.296227	0.2041	0.000058
4.299627	0.204	0.000000
4.303028	0.2041	0.000000
4.306428	0.204	52.672649
4.309830	0.2041	0.000000
4.313232	0.2041	0.000000
4.316632	0.204	0.000000
4.320033	0.2041	0.000001
4.323433	0.204	0.000000
4.326835	0.2041	0.000000
4.330237	0.2041	0.000000
4.333637	0.204	0.000000
4.337038	0.2041	0.000000
4.340440	0.2041	0.000000
4.343840	0.204	0.000000
4.347242	0.2041	0.000000
4.350642	0.204	3385.635010
4.354043	0.2041	0.000000
4.357445	0.2041	0.000000
4.360845	0.204	5873.460938
4.364247	0.2041	0.000000
4.367647	0.204	0.000000
4.371048	0.2041	1043.783936
4.374450	0.2041	0.000000
4.377850	0.204	0.000000
4.381252	0.2041	0.000000
4.384652	0.204	7.861827
4.388053	0.2041	0.000000
4.391455	0.2041	0.000000
4.394855	0.204	4.216723
4.398257	0.2041	0.000000
4.401658	0.2041	0.000000
4.405058	0.204	0.000000
4.408460	0.2041	0.000000
4.411860	0.204	0.000000
4.415262	0.2041	0.000000
4.418663	0.2041	0.021729
4.422063	0.204	0.000000
4.425465	0.2041	0.000000
4.428865	0.204	65.265663
4.432267	0.2041	0.000000
4.435668	0.2041	0.000000
4.439068	0.204	0.000000
4.442470	0.2041	7.895347
4.445870	0.204	0.000000
4.449272	0.2041	2.902539
4.452673	0.2041	0.000000
4.456073	0.204	0.000000
4.459475	0.2041	0.000000
4.462875	0.204	0.000000
4.466277	0.2041	0.070368
4.469678	0.2041	0.000000
4.473078	0.204	0.029185
4.476480	0.2041	0.000000
4.479882	0.2041	0.000000
4.483282	0.204	0.000000
4.486683	0.2041	0.000000
4.490083	0.204	0.000000
4.493485	0.2041	0.000000
4.496887	0.2041	0.000000
4.500287	0.204	0.000000
4.503688	0.2041	0.000000
4.507088	0.204	0.000000
4.510490	0.2041	0.000000
4.513892	0.2041	0.000000
4.517292	0.204	0.000000
4.520693	0.2041	0.000000
4.524093	0.204	0.000000
4.527495	0.2041	0.000000
4.530897	0.2041	0.000000
4.534297	0.204	0.000000
4.537698	0.2041	0.000000
4.541100	0.2041	0.000000
4.544500	0.204	0.000000
4.547902	0.2041	0.000000
4.551302	0.204	0.000000
4.554703	0.2041	0.000000
4.558105	0.2041	0.000000
4.561505	0.204	0.000000
4.564907	0.2041	0.000000
4.568307	0.204	0.000000
4.571708	0.2041	0.000000
4.575110	0.2041	0.000000
4.578510	0.204	0.000000
4.581912	0.2041	0.000000
4.585312	0.204	0.000000
4.588713	0.2041	0.000000
4.592115	0.2041	0.000000
4.595515	0.204	785.761902
4.598917	0.2041	1995.168701
4.602317	0.204	1423.399048
4.605718	0.2041	0.000000
4.609120	0.2041	0.000000
4.612520	0.204	0.000000
4.615922	0.2041	0.000000
4.619323	0.2041	0.000000
4.622723	0.204	0.000000
4.626125	0.2041	0.000000
4.629525	0.204	0.000000
4.632927	0.2041	52.687874
4.636328	0.2041	0.000000
4.639728	0.204	0.000000
4.643130	0.2041	0.000000
4.646530	0.204	3921.984863
4.649932	0.2041	0.000000
4.653333	0.2041	0.000000
4.656733	0.204	0.000000
4.660135	0.2041	0.000000
4.663535	0.204	0.000000
4.666937	0.2041	0.000000
4.670338	0.2041	0.000000
4.673738	0.204	0.000000
4.677140	0.2041	0.000000
4.680542	0.2041	0.000000
4.683942	0.204	0.000000
4.687343	0.2041	1.395276
4.690743	0.204	0.000000
4.694145	0.2041	0.000000
4.697547	0.2041	0.000000
4.700947	0.204	0.000000
4.704348	0.2041	0.000000
4.707748	0.204	0.000000
4.711150	0.2041	0.000000
4.714552	0.2041	0.000000
4.717952	0.204	0.000000
4.721353	0.2041	0.000000
4.724753	0.204	0.209377
4.728155	0.2041	0.000000
4.731557	0.2041	0.000000
4.734957	0.204	0.000000
4.738358	0.2041	0.000000
4.741758	0.204	0.000000
4.745160	0.2041	0.000000
4.748562	0.2041	0.000000
4.751962	0.204	0.000000
4.755363	0.2041	824.636414
4.758765	0.2041	616.013611
4.762165	0.204	0.000000
4.765567	0.2041	0.000000
4.768967	0.204	65.294884
4.772368	0.2041	0.000000
4.775770	0.2041	24.025166
4.779170	0.204	0.000000
4.782572	0.2041	0.000000
4.785972	0.204	0.164571
4.789373	0.2041	0.000000
4.792775	0.2041	0.000000
4.796175	0.204	0.000000
4.799577	0.2041	0.000000
4.802977	0.204	0.011466
4.806378	0.2041	66.095161
4.809780	0.2041	73.206528
4.813180	0.204	0.000000
4.816582	0.2041	0.000000
4.819983	0.2041	833.783752
4.823383	0.204	0.000000
4.826785	0.2041	0.000000
4.830185	0.204	0.000000
4.833587	0.2041	95.112206
4.836988	0.2041	0.000000
4.840388	0.204	1760.758301
4.843790	0.2041	1962.327271
4.847190	0.204	0.000000
4.850592	0.2041	0.000000
4.853993	0.2041	289.442902
4.857393	0.204	0.000000
4.860795	0.2041	76.694069
4.864195	0.204	0.000000
4.867597	0.2041	0.000000
4.870998	0.2041	0.000000
4.874398	0.204	0.000000
4.877800	0.2041	1.937380
4.881202	0.2041	0.000000
4.884602	0.204	0.000000
4.888003	0.2041	0.000000
4.891403	0.204	0.000000
4.894805	0.2041	0.000000
4.898207	0.2041	53.350246
4.901607	0.204	0.000000
4.905008	0.2041	0.000000
4.908408	0.204	0.000000
4.911810	0.2041	0.000000
4.915212	0.2041	0.000000
4.918612	0.204	0.000000
4.922013	0.2041	0.000000
4.925413	0.204	0.000000
4.928815	0.2041	0.000000
4.932217	0.2041	0.139832
4.935617	0.204	0.000000
4.939018	0.2041	0.029664
4.942418	0.204	0.000000
4.945820	0.2041	0.000000
4.949222	0.2041	0.000000
4.952622	0.204	0.000000
4.956023	0.2041	971.618286
4.959425	0.2041	1233.362427
4.962825	0.204	0.000000
4.966227	0.2041	0.000000
4.969627	0.204	116.407143
4.973028	0.2041	0.000000
4.976430	0.2041	42.546299
4.979830	0.204	0.066395
4.983232	0.2041	5.234355
4.986632	0.204	0.000000
4.990033	0.2041	0.000000
4.993435	0.2041	0.864807
4.996835	0.204	76.332153
5.000237	0.2041	87.883553
5.003637	0.204	0.000000
5.007038	0.2041	0.000000
5.010440	0.2041	9.299247
5.013840	0.204	0.000000
5.017242	0.2041	0.000000
5.020643	0.2041	0.195761
5.024043	0.204	0.094595
5.027445	0.2041	0.000000
5.030845	0.204	0.000000
5.034247	0.2041	0.000000
5.037648	0.2041	0.000000
5.041048	0.204	0.000000
5.044450	0.2041	0.000000
5.047850	0.204	117.312805
5.051252	0.2041	0.000000
5.054653	0.2041	0.000000
5.058053	0.204	27.943293
5.061455	0.2041	0.000000
5.064855	0.204	0.000000
5.068257	0.2041	0.000000
5.071658	0.2041	0.000000
5.075058	0.204	0.000000
5.078460	0.2041	0.000000
5.081860	0.204	0.000000
5.085262	0.2041	0.059730
5.088663	0.2041	0.000000
5.092063	0.204	0.000000
5.095465	0.2041	0.023670
5.098867	0.2041	0.000000
5.102267	0.204	0.005161
5.105668	0.2041	0.000000
5.109068	0.204	0.000109
5.112470	0.2041	0.000000
5.115872	0.2041	0.000000
5.119272	0.204	0.000155
5.122673	0.2041	0.000000
5.126073	0.204	0.000000
5.129475	0.2041	0.000000
5.132877	0.2041	0.000000
5.136277	0.204	0.000003
5.139678	0.2041	323.987427
5.143078	0.204	236.965408
5.146480	0.2041	0.000000
5.149882	0.2041	0.000000
5.153282	0.204	30.232647
5.156683	0.2041	0.078445
5.160085	0.2041	9.200754
5.163485	0.204	0.000000
5.166887	0.2041	1.125951
5.170287	0.204	0.000000
5.173688	0.2041	0.000000
5.177090	0.2041	0.207806
5.180490	0.204	0.000000
5.183892	0.2041	0.000000
5.187292	0.204	1397.430542
5.190693	0.2041	752.350586
5.194095	0.2041	0.000000
5.197495	0.204	0.000000
5.200897	0.2041	80.124588
5.204297	0.204	0.000000
5.207698	0.2041	29.404890
5.211100	0.2041	0.000000
5.214500	0.204	3.607936
5.217902	0.2041	0.000000
5.221302	0.204	0.000000
5.224703	0.2041	42.398510
5.228105	0.2041	2705.536621
5.231505	0.204	3028.873047
5.234907	0.2041	0.000000
5.238308	0.2041	0.000000
5.241708	0.204	367.915985
5.245110	0.2041	34.285225
5.248510	0.204	112.782127
5.251912	0.2041	0.000000
5.255313	0.2041	20.341183
5.258713	0.204	0.000000
5.262115	0.2041	0.000000
5.265515	0.204	0.000000
5.268917	0.2041	0.000000
5.272318	0.2041	0.000000
5.275718	0.204	11.373693
5.279120	0.2041	71.674400
5.282520	0.204	94.447136
5.285922	0.2041	0.000000
5.289323	0.2041	0.000000
5.292723	0.204	9.520857
5.296125	0.2041	0.000000
5.299527	0.2041	3.603559
5.302927	0.204	0.000000
5.306328	0.2041	0.458433
5.309728	0.204	0.000000
5.313130	0.2041	0.000000
5.316532	0.2041	0.071536
5.319932	0.204	0.000000
5.323333	0.2041	0.021627
5.326733	0.204	0.000000
5.330135	0.2041	0.000000
5.333537	0.2041	0.074771
5.336937	0.204	0.028817
5.340338	0.2041	0.000000
5.343738	0.204	0.000000
5.347140	0.2041	0.000000
5.350542	0.2041	0.000000
5.353942	0.204	0.000000
5.357343	0.2041	0.000137
5.360743	0.204	0.000329
5.364145	0.2041	0.000000
5.367547	0.2041	0.000000
5.370947	0.204	0.000000
5.374348	0.2041	0.000035
5.377750	0.2041	0.000000
5.381150	0.204	0.000000
5.384552	0.2041	0.000003
5.387952	0.204	0.000000
5.391353	0.2041	0.000001
5.394755	0.2041	0.000000
5.398155	0.204	0.000000
5.401557	0.2041	0.000000
5.404957	0.204	110.796280
5.408358	0.2041	126.354919
5.411760	0.2041	0.000000
5.415160	0.204	0.000000
5.418562	0.2041	89.172935
5.421962	0.204	0.000000
5.425363	0.2041	0.000000
5.428765	0.2041	0.000000
5.432165	0.204	0.632667
5.435567	0.2041	0.000000
5.438968	0.2041	78.624008
5.442368	0.204	178.832901
5.445770	0.2041	0.000000
5.449170	0.204	43.568794
5.452572	0.2041	56.219944
5.455973	0.2041	0.000000
5.459373	0.204	1.709498
5.462775	0.2041	0.000000
5.466175	0.204	0.000000
5.469577	0.2041	2.331609
5.472978	0.2041	0.000000
5.476378	0.204	0.000000
5.479780	0.2041	0.000000
5.483180	0.204	0.009571
5.486582	0.2041	0.038433
5.489983	0.2041	0.000000
5.493383	0.204	0.013484
5.496785	0.2041	0.000000
5.500185	0.204	0.001305
5.503587	0.2041	0.000133
5.506988	0.2041	0.000051
5.510388	0.204	0.000366
5.513790	0.2041	0.000000
5.517192	0.2041	0.000075
5.520592	0.204	0.000000
5.523993	0.2041	0.000005
5.527393	0.204	0.000002
5.530795	0.2041	0.000000
5.534197	0.2041	0.000002
5.537597	0.204	0.000000
5.540998	0.2041	0.000000
5.544398	0.204	0.000000
5.547800	0.2041	0.000000
5.551202	0.2041	0.000000
5.554602	0.204	0.000000
5.558003	0.2041	0.000000
5.561403	0.204	0.000000
5.564805	0.2041	0.000000
5.568207	0.2041	0.000000
5.571607	0.204	0.000000
5.575008	0.2041	0.000000
5.578410	0.2041	0.000000
5.581810	0.204	0.000000
5.585212	0.2041	0.000000
5.588612	0.204	0.000000
5.592013	0.2041	0.000000
5.595415	0.2041	0.000000
5.598815	0.204	0.000000
5.602217	0.2041	0.000000
5.605617	0.204	0.000000
5.609018	0.2041	0.000000
5.612420	0.2041	0.000000
5.615820	0.204	0.000000
5.619222	0.2041	0.000000
5.622622	0.204	0.000000
5.626023	0.2041	0.000000
5.629425	0.2041	0.000000
5.632825	0.204	167.125549
5.636227	0.2041	74.871811
5.639627	0.204	0.000000
5.643028	0.2041	0.000000
5.646430	0.2041	10.367993
5.649830	0.204	0.000000
5.653232	0.2041	0.000000
5.656633	0.2041	0.483468
5.660033	0.204	0.359370
5.663435	0.2041	0.000000
5.666835	0.204	0.079891
5.670237	0.2041	0.000000
5.673638	0.2041	0.000000
5.677038	0.204	0.000000
5.680440	0.2041	0.000000
5.683840	0.204	0.000000
5.687242	0.2041	0.000000
5.690643	0.2041	0.000000
5.694043	0.204	0.000000
5.697445	0.2041	0.000135
5.700845	0.204	0.000000
5.704247	0.2041	0.000000
5.707648	0.2041	0.000000
5.711048	0.204	0.000000
5.714450	0.2041	0.000004
5.717852	0.2041	0.000000
5.721252	0.204	0.000001
5.724653	0.2041	0.000000
5.728053	0.204	0.000000
5.731455	0.2041	0.000000
5.734857	0.2041	1.180804
5.738257	0.204	0.456621
5.741658	0.2041	0.000000
5.745058	0.204	0.467608
5.748460	0.2041	1570.526001
5.751862	0.2041	1778.472046
5.755262	0.204	0.000000
5.758663	0.2041	1.959066
5.762063	0.204	181.306473
5.765465	0.2041	0.000000
5.768867	0.2041	66.683235
5.772267	0.204	0.000000
5.775668	0.2041	8.203602
5.779068	0.204	0.000000
5.782470	0.2041	0.024398
5.785872	0.2041	1.350589
5.789272	0.204	0.000000
5.792673	0.2041	0.398520
5.796075	0.2041	0.000000
5.799475	0.204	145.779877
5.802877	0.2041	0.000000
5.806277	0.204	0.000000
5.809678	0.2041	0.000000
5.813080	0.2041	8.543331
5.816480	0.204	0.000000
5.819882	0.2041	0.000000
5.823282	0.204	0.000000
5.826683	0.2041	0.385201
5.830085	0.2041	0.000000
5.833485	0.204	0.000000
5.836887	0.2041	0.118756
5.840287	0.204	0.000000
5.843688	0.2041	0.000000
5.847090	0.2041	0.000000
5.850490	0.204	0.000000
5.853892	0.2041	0.000000
5.857293	0.2041	0.000000
5.860693	0.204	0.000000
5.864095	0.2041	0.000000
5.867495	0.204	0.000000
5.870897	0.2041	0.000000
5.874298	0.2041	0.000000
5.877698	0.204	0.000000
5.881100	0.2041	0.000000
5.884500	0.204	1.447590
5.887902	0.2041	0.416165
5.891303	0.2041	0.000000
5.894703	0.204	0.000000
5.898105	0.2041	0.000000
5.901505	0.204	0.094335
5.904907	0.2041	0.000000
5.908308	0.2041	0.000000
5.911708	0.204	0.004744
5.915110	0.2041	0.000000
5.918510	0.204	0.002791
5.921912	0.2041	0.000000
5.925313	0.2041	0.000521
5.928713	0.204	0.000000
5.932115	0.2041	0.000000
5.935517	0.2041	0.000000
5.938917	0.204	0.000000
5.942318	0.2041	0.000018
5.945718	0.204	0.000000
5.949120	0.2041	0.000000
5.952522	0.2041	0.000000
5.955922	0.204	0.000000
5.959323	0.2041	0.000000
5.962723	0.204	0.000000
5.966125	0.2041	0.000000
5.969527	0.2041	0.000000
5.972927	0.204	0.000000
5.976328	0.2041	0.000000
5.979728	0.204	0.000000
5.983130	0.2041	363.097290
5.986532	0.2041	414.147156
5.989932	0.204	0.000000
5.993333	0.2041	0.000000
5.996735	0.2041	43.934071
6.000135	0.204	0.000000
6.003537	0.2041	16.920691
6.006937	0.204	0.000000
6.010338	0.2041	0.000000
6.013740	0.2041	0.000000
6.017140	0.204	0.000000
6.020542	0.2041	0.000000
6.023942	0.204	0.000000
6.027343	0.2041	0.000000
6.030745	0.2041	0.000000
6.034145	0.204	0.000000
6.037547	0.2041	0.003202
6.040947	0.204	0.000000
6.044348	0.2041	0.000000
6.047750	0.2041	0.000000
6.051150	0.204	0.000000
6.054552	0.2041	0.000000
6.057953	0.2041	0.558832
6.061353	0.204	0.210208
6.064755	0.2041	0.000000
6.068155	0.204	0.000000
6.071557	0.2041	0.000000
6.074958	0.2041	0.000000
6.078358	0.204	0.000000
6.081760	0.2041	1.209967
6.085160	0.204	0.000000
6.088562	0.2041	282.292969
6.091963	0.2041	0.764999
6.095363	0.204	0.000000
6.098765	0.2041	0.000000
6.102165	0.204	105.244392
6.105567	0.2041	0.000000
6.108968	0.2041	0.000000
6.112368	0.204	0.000000
6.115770	0.2041	70.966972
6.119170	0.204	0.000000
6.122572	0.2041	4.399790
6.125973	0.2041	1407.226196
6.129373	0.204	1594.161499
6.132775	0.2041	0.000000
6.136177	0.2041	0.000000
6.139577	0.204	0.000000
6.142978	0.2041	0.000000
6.146378	0.204	0.000000
6.149780	0.2041	0.364555
6.153182	0.2041	0.000000
6.156582	0.204	0.416049
6.159983	0.2041	1018.384521
6.163383	0.204	1108.623901
6.166785	0.2041	0.000000
6.170187	0.2041	0.000000
6.173587	0.204	117.332382
6.176988	0.2041	0.000000
6.180388	0.204	43.209419
6.183790	0.2041	0.000000
6.187192	0.2041	5.323991
6.190592	0.204	0.000000
6.193993	0.2041	0.000000
6.197395	0.2041	0.874366
6.200795	0.204	0.000000
6.204197	0.2041	0.258282
6.207597	0.204	0.000000
6.210998	0.2041	0.000000
6.214400	0.2041	0.003246
6.217800	0.204	0.000000
6.221202	0.2041	0.006132
6.224602	0.204	0.000000
6.228003	0.2041	0.000000
6.231405	0.2041	0.000000
6.234805	0.204	0.074803
6.238207	0.2041	0.028954
6.241607	0.204	0.000000
6.245008	0.2041	0.029637
6.248410	0.2041	0.000000
6.251810	0.204	0.000000
6.255212	0.2041	0.000000
6.258612	0.204	0.000000
6.262013	0.2041	0.000000
6.265415	0.2041	0.000000
6.268815	0.204	0.000000
6.272217	0.2041	53.328140
6.275618	0.2041	0.000000
6.279018	0.204	0.000000
6.282420	0.2041	2368.633301
6.285820	0.204	2731.247559
6.289222	0.2041	447.835266
6.292623	0.2041	882.715332
6.296023	0.204	95.331696
6.299425	0.2041	0.078554
6.302825	0.204	219.502670
6.306227	0.2041	0.000000
6.309628	0.2041	219.080734
6.313028	0.204	0.000000
6.316430	0.2041	0.000000
6.319830	0.204	19.590399
6.323232	0.2041	53.817528
6.326633	0.2041	166.858765
6.330033	0.204	0.000000
6.333435	0.2041	6.671135
6.336837	0.2041	6.638489
6.340237	0.204	0.000000
6.343638	0.2041	2.575850
6.347038	0.204	0.000000
6.350440	0.2041	0.000000
6.353842	0.2041	0.000000
6.357242	0.204	0.000000
6.360643	0.2041	0.000000
6.364043	0.204	0.000000
6.367445	0.2041	0.000000
6.370847	0.2041	0.000000
6.374247	0.204	0.000000
6.377648	0.2041	0.000180
6.381048	0.204	0.000000
6.384450	0.2041	0.000000
6.387852	0.2041	0.000000
6.391252	0.204	0.192563
6.394653	0.2041	0.068743
6.398055	0.2041	0.000000
6.401455	0.204	0.071196
6.404857	0.2041	0.000000
6.408257	0.204	0.015805
6.411658	0.2041	0.000000
6.415060	0.2041	0.000000
6.418460	0.204	0.000787
6.421862	0.2041	0.000000
6.425262	0.204	0.000000
6.428663	0.2041	0.000000
6.432065	0.2041	0.000000
6.435465	0.204	0.000000
6.438867	0.2041	0.000000
6.442267	0.204	0.000000
6.445668	0.2041	0.000000
6.449070	0.2041	0.000000
6.452470	0.204	0.000000
6.455872	0.2041	0.000000
6.459272	0.204	0.000000
6.462673	0.2041	0.000000
6.466075	0.2041	66.620354
6.469475	0.204	75.988136
6.472877	0.2041	0.000000
6.476278	0.2041	0.000000
6.479678	0.204	0.000000
6.483080	0.2041	0.000000
6.486480	0.204	427.760559
6.489882	0.2041	470.217499
6.493283	0.2041	2.052135
6.496683	0.204	0.000000
6.500085	0.2041	784.586609
6.503485	0.204	830.117432
6.506887	0.2041	0.000000
6.510288	0.2041	0.000000
6.513688	0.204	91.168869
6.517090	0.2041	0.000000
6.520490	0.204	32.614590
6.523892	0.2041	0.000000
6.527293	0.2041	0.000000
6.530693	0.204	0.000000
6.534095	0.2041	0.000000
6.537497	0.2041	0.391044
6.540897	0.204	0.000000
6.544298	0.2041	0.000000
6.547698	0.204	0.000000
6.551100	0.2041	0.000025
6.554502	0.2041	0.000000
6.557902	0.204	0.000000
6.561303	0.2041	0.000000
6.564703	0.204	0.000000
6.568105	0.2041	0.000000
6.571507	0.2041	0.000000
6.574907	0.204	0.040621
6.578308	0.2041	0.000000
6.581708	0.204	0.000000
6.585110	0.2041	0.000000
6.588512	0.2041	0.717596
6.591912	0.204	0.000000
6.595313	0.2041	0.000000
6.598713	0.204	0.389797
6.602115	0.2041	1117.505249
6.605517	0.2041	1220.573730
6.608917	0.204	0.000000
6.612318	0.2041	0.000000
6.615720	0.2041	134.216629
6.619120	0.204	43.378479
6.622522	0.2041	0.000000
6.625922	0.204	0.000000
6.629323	0.2041	5.788946
6.632725	0.2041	5.216300
6.636125	0.204	74.488388
6.639527	0.2041	92.191803
6.642927	0.204	0.000000
6.646328	0.2041	0.269281
6.649730	0.2041	9.791307
6.653130	0.204	0.000000
6.656532	0.2041	3.517003
6.659932	0.204	1047.401367
6.663333	0.2041	1196.793823
6.666735	0.2041	1.207113
6.670135	0.204	0.000000
6.673537	0.2041	126.983711
6.676938	0.2041	0.509659
6.680338	0.204	46.706589
6.683740	0.2041	0.107645
6.687140	0.204	5.747249
6.690542	0.2041	0.002293
6.693943	0.2041	0.000000
6.697343	0.204	0.945894
6.700745	0.2041	0.003316
6.704145	0.204	0.279140
6.707547	0.2041	0.000572
6.710948	0.2041	0.024124
6.714348	0.204	0.000000
6.717750	0.2041	0.000000
6.721150	0.204	0.006632
6.724552	0.2041	0.000000
6.727953	0.2041	0.000000
6.731353	0.204	0.000000
6.734755	0.2041	0.000000
6.738155	0.204	0.000000
6.741557	0.2041	0.000000
6.744958	0.2041	0.000000
6.748358	0.204	0.000000
6.751760	0.2041	981.684082
6.755162	0.2041	912.494324
6.758562	0.204	0.000000
6.761963	0.2041	0.000000
6.765363	0.204	101.312332
6.768765	0.2041	0.000000
6.772167	0.2041	0.000000
6.775567	0.204	0.000000
6.778968	0.2041	0.000000
6.782368	0.204	0.000000
6.785770	0.2041	278.448853
6.789172	0.2041	1217.837891
6.792572	0.204	1035.189575
6.795973	0.2041	0.000000
6.799373	0.204	7.899549
6.802775	0.2041	0.000000
6.806177	0.2041	0.000000
6.809577	0.204	39.060547
6.812978	0.2041	0.000000
6.816380	0.2041	0.000000
6.819780	0.204	0.000000
6.823182	0.2041	0.000000
6.826582	0.204	0.835261
6.829983	0.2041	0.000000
6.833385	0.2041	0.000000
6.836785	0.204	0.000000
6.840187	0.2041	0.000000
6.843587	0.204	0.001936
6.846988	0.2041	0.000000
6.850390	0.2041	0.000000
6.853790	0.204	0.000000
6.857192	0.2041	0.000000
6.860592	0.204	1751.539917
6.863993	0.2041	110.990067
6.867395	0.2041	55.980103
6.870795	0.204	0.000000
6.874197	0.2041	0.000000
6.877597	0.204	0.000000
6.880998	0.2041	0.000000
6.884400	0.2041	0.000000
6.887800	0.204	0.000000
6.891202	0.2041	0.000000
6.894603	0.2041	0.000000
6.898003	0.204	0.000000
6.901405	0.2041	0.000000
6.904805	0.204	0.000000
6.908207	0.2041	0.000000
6.911608	0.2041	0.000000
6.915008	0.204	0.000000
6.918410	0.2041	0.000000
6.921810	0.204	0.000000
6.925212	0.2041	0.000000
6.928613	0.2041	0.000000
6.932013	0.204	0.000000
6.935415	0.2041	0.000000
6.938815	0.204	0.000000
6.942217	0.2041	0.000000
6.945618	0.2041	0.000000
6.949018	0.204	0.627559
6.952420	0.2041	0.000000
6.955820	0.204	0.136843
6.959222	0.2041	161.972748
6.962623	0.2041	171.679016
6.966023	0.204	0.000000
6.969425	0.2041	0.000000
6.972827	0.2041	18.215517
6.976227	0.204	0.000000
6.979628	0.2041	0.000000
6.983028	0.204	0.000000
6.986430	0.2041	0.824079
6.989832	0.2041	0.000000
6.993232	0.204	0.000000
6.996633	0.2041	0.135686
