URL	chrom://isq7ci2006004/ChromeleonLocal/Instrument Data/Aspuru-Guzik/Stanley/2024_12_16_005c-H.seq/936.smp/MS_F1_[364.0-364.3].channel/MS_F1_[364.0-364.3].chm
Channel	MS_F1_[364.0-364.3]

Injection Information:
Data Vault	ChromeleonLocal
Sequence	2024_12_16_005c-H
Name	005c-H1F_conc
Number	6
Position	4
Comment	
Processing Method	Basic Quantitative
Instrument Method	2024_12_16_005c-H - Copy
Type	Unknown
Status	Finished
Inject Time	12/16/2024 3:33:19 PM -05:00
Volume (µl)	3.0000
Dilution Factor	1.0000
Weight	1.0000

Chromatogram Data Information:
Time Min. (min)	2.500587
Time Max. (min)	6.993328
Data Points	1322
Detector	MSDevice
Generating Data System	Chromeleon 7.3 Build 60919 (5efd55c28726aa174740e3ad3b435409b51aa6a1)
Exporting Data System	Chromeleon 7.3.0.0
Operator	aspuruguzik
Signal Quantity	Intensity
Signal Unit	counts
Signal Min.	0.000000
Signal Max.	10812.142578
Channel	MS_F1_[364.0-364.3]
Driver Name	Thermo.MassSpectrometer
Channel Type	Evaluation
Min. Step (s)	0.204
Max. Step (s)	0.2041
Average Step (s)	0.20406094

Signal Parameter Information:
Signal Info	

Chromatogram Data:
Time (min)	Step (s)	Value (counts)
2.500587	n.a.	0.000000
2.503987	0.204	0.000000
2.507388	0.2041	0.000000
2.510790	0.2041	0.000000
2.514190	0.204	0.000000
2.517592	0.2041	0.000000
2.520992	0.204	0.000000
2.524393	0.2041	150.764160
2.527795	0.2041	0.000000
2.531195	0.204	0.000000
2.534597	0.2041	8.953188
2.537997	0.204	0.000000
2.541398	0.2041	0.000000
2.544800	0.2041	0.000000
2.548200	0.204	0.000000
2.551602	0.2041	0.138290
2.555002	0.204	0.000000
2.558403	0.2041	0.000000
2.561805	0.2041	0.000000
2.565205	0.204	0.000000
2.568607	0.2041	0.000000
2.572008	0.2041	0.000000
2.575408	0.204	0.000000
2.578810	0.2041	0.000000
2.582210	0.204	0.000000
2.585612	0.2041	0.000000
2.589013	0.2041	0.000000
2.592413	0.204	0.000000
2.595815	0.2041	0.000000
2.599215	0.204	0.000000
2.602617	0.2041	0.000000
2.606018	0.2041	0.000000
2.609418	0.204	0.000000
2.612820	0.2041	0.000000
2.616220	0.204	0.000000
2.619622	0.2041	0.000000
2.623023	0.2041	0.000000
2.626423	0.204	0.000000
2.629825	0.2041	0.000000
2.633225	0.204	36.827496
2.636627	0.2041	285.332672
2.640028	0.2041	369.471832
2.643428	0.204	0.000000
2.646830	0.2041	0.000000
2.650232	0.2041	0.000000
2.653632	0.204	0.000000
2.657033	0.2041	84.328613
2.660433	0.204	0.000000
2.663835	0.2041	0.000000
2.667237	0.2041	0.000000
2.670637	0.204	12.272341
2.674038	0.2041	0.000000
2.677438	0.204	3.592656
2.680840	0.2041	0.000000
2.684242	0.2041	0.000000
2.687642	0.204	0.000000
2.691043	0.2041	0.000000
2.694443	0.204	0.085758
2.697845	0.2041	98.773399
2.701247	0.2041	102.959450
2.704647	0.204	0.000000
2.708048	0.2041	0.000000
2.711450	0.2041	11.440023
2.714850	0.204	0.000000
2.718252	0.2041	4.016727
2.721652	0.204	0.000000
2.725053	0.2041	0.494195
2.728455	0.2041	0.000000
2.731855	0.204	0.000000
2.735257	0.2041	0.000000
2.738657	0.204	0.000000
2.742058	0.2041	0.001264
2.745460	0.2041	0.000000
2.748860	0.204	0.000000
2.752262	0.2041	0.000000
2.755662	0.204	0.000000
2.759063	0.2041	0.000000
2.762465	0.2041	0.000000
2.765865	0.204	1040.688721
2.769267	0.2041	1205.512451
2.772667	0.204	0.000000
2.776068	0.2041	0.000000
2.779470	0.2041	126.753738
2.782870	0.204	0.000000
2.786272	0.2041	46.675499
2.789673	0.2041	0.000000
2.793073	0.204	5.809099
2.796475	0.2041	0.000000
2.799875	0.204	0.000000
2.803277	0.2041	0.944210
2.806678	0.2041	0.000000
2.810078	0.204	0.279257
2.813480	0.2041	0.000000
2.816880	0.204	0.000000
2.820282	0.2041	0.000000
2.823683	0.2041	0.000000
2.827083	0.204	0.006623
2.830485	0.2041	0.000000
2.833885	0.204	0.001607
2.837287	0.2041	0.000000
2.840688	0.2041	0.000075
2.844088	0.204	0.000000
2.847490	0.2041	0.000000
2.850892	0.2041	0.000000
2.854292	0.204	0.000000
2.857693	0.2041	0.000009
2.861093	0.204	0.000000
2.864495	0.2041	0.000000
2.867897	0.2041	0.000000
2.871297	0.204	0.000000
2.874698	0.2041	0.000000
2.878098	0.204	0.000000
2.881500	0.2041	0.000000
2.884902	0.2041	0.000000
2.888302	0.204	0.000000
2.891703	0.2041	0.000000
2.895103	0.204	0.000000
2.898505	0.2041	0.000000
2.901907	0.2041	0.000000
2.905307	0.204	1379.200928
2.908708	0.2041	1573.088989
2.912110	0.2041	0.000000
2.915510	0.204	0.000000
2.918912	0.2041	2307.589600
2.922312	0.204	0.000000
2.925713	0.2041	0.000000
2.929115	0.2041	941.049133
2.932515	0.204	931.163208
2.935917	0.2041	0.000000
2.939317	0.204	0.000000
2.942718	0.2041	899.218262
2.946120	0.2041	814.689941
2.949520	0.204	35.839455
2.952922	0.2041	0.000000
2.956322	0.204	93.711029
2.959723	0.2041	0.000000
2.963125	0.2041	32.535244
2.966525	0.204	0.669944
2.969927	0.2041	3.913592
2.973327	0.204	0.206568
2.976728	0.2041	0.000000
2.980130	0.2041	129.653549
2.983530	0.204	146.713837
2.986932	0.2041	0.000000
2.990333	0.2041	0.000000
2.993733	0.204	15.620968
2.997135	0.2041	0.000000
3.000535	0.204	5.733376
3.003937	0.2041	0.000000
3.007338	0.2041	0.703623
3.010738	0.204	0.000000
3.014140	0.2041	0.000000
3.017540	0.204	0.000000
3.020942	0.2041	0.000000
3.024343	0.2041	0.000000
3.027743	0.204	0.000000
3.031145	0.2041	0.000000
3.034545	0.204	0.000000
3.037947	0.2041	0.000000
3.041348	0.2041	0.000000
3.044748	0.204	0.000000
3.048150	0.2041	0.000000
3.051552	0.2041	0.000000
3.054952	0.204	0.000000
3.058353	0.2041	0.000000
3.061753	0.204	0.000000
3.065155	0.2041	53.887070
3.068557	0.2041	0.000000
3.071957	0.204	0.000000
3.075358	0.2041	5.871394
3.078758	0.204	0.000000
3.082160	0.2041	0.000000
3.085562	0.2041	0.000000
3.088962	0.204	0.260318
3.092363	0.2041	0.000000
3.095763	0.204	0.000000
3.099165	0.2041	0.000000
3.102567	0.2041	0.000000
3.105967	0.204	197.499222
3.109368	0.2041	128.191406
3.112768	0.204	0.000000
3.116170	0.2041	0.000000
3.119572	0.2041	14.161402
3.122972	0.204	0.000000
3.126373	0.2041	0.000000
3.129775	0.2041	0.000000
3.133175	0.204	0.970307
3.136577	0.2041	0.000000
3.139977	0.204	0.000000
3.143378	0.2041	0.000000
3.146780	0.2041	0.000000
3.150180	0.204	0.064061
3.153582	0.2041	0.000000
3.156982	0.204	0.000000
3.160383	0.2041	0.000000
3.163785	0.2041	0.000000
3.167185	0.204	134.920319
3.170587	0.2041	195.283783
3.173987	0.204	0.000000
3.177388	0.2041	264.608215
3.180790	0.2041	313.513306
3.184190	0.204	0.000000
3.187592	0.2041	0.000000
3.190993	0.2041	29.042524
3.194393	0.204	0.385318
3.197795	0.2041	11.543449
3.201195	0.204	54.930260
3.204597	0.2041	69.721992
3.207998	0.2041	0.000000
3.211398	0.204	132.784927
3.214800	0.2041	7.236948
3.218200	0.204	0.000000
3.221602	0.2041	16.817383
3.225003	0.2041	0.000000
3.228403	0.204	66.266762
3.231805	0.2041	67.137779
3.235205	0.204	6.866565
3.238607	0.2041	12.124931
3.242008	0.2041	0.000000
3.245408	0.204	0.000000
3.248810	0.2041	95.950272
3.252210	0.204	0.000000
3.255612	0.2041	0.981836
3.259013	0.2041	0.000000
3.262413	0.204	0.000000
3.265815	0.2041	0.036636
3.269217	0.2041	0.000000
3.272617	0.204	0.000000
3.276018	0.2041	0.000000
3.279418	0.204	0.000000
3.282820	0.2041	0.000000
3.286222	0.2041	0.612750
3.289622	0.204	0.237388
3.293023	0.2041	0.000000
3.296423	0.204	0.000000
3.299825	0.2041	0.000000
3.303227	0.2041	0.000000
3.306627	0.204	1177.870972
3.310028	0.2041	0.000000
3.313428	0.204	0.000000
3.316830	0.2041	216.160049
3.320232	0.2041	0.000000
3.323632	0.204	112.050049
3.327033	0.2041	82.315674
3.330435	0.2041	0.000000
3.333835	0.204	0.000000
3.337237	0.2041	0.000000
3.340637	0.204	0.855936
3.344038	0.2041	0.000000
3.347440	0.2041	752.749695
3.350840	0.204	858.952271
3.354242	0.2041	0.000000
3.357642	0.204	0.000000
3.361043	0.2041	91.447090
3.364445	0.2041	0.000000
3.367845	0.204	0.000000
3.371247	0.2041	0.000000
3.374647	0.204	0.000000
3.378048	0.2041	0.000000
3.381450	0.2041	0.000000
3.384850	0.204	0.000000
3.388252	0.2041	1.363336
3.391653	0.2041	0.000000
3.395053	0.204	0.000000
3.398455	0.2041	0.000000
3.401855	0.204	0.000000
3.405257	0.2041	0.000000
3.408658	0.2041	0.000000
3.412058	0.204	0.000000
3.415460	0.2041	0.000000
3.418860	0.204	0.000000
3.422262	0.2041	0.000000
3.425663	0.2041	0.000000
3.429063	0.204	0.001026
3.432465	0.2041	0.000000
3.435865	0.204	0.000000
3.439267	0.2041	0.000000
3.442668	0.2041	0.000000
3.446068	0.204	0.000000
3.449470	0.2041	0.717432
3.452870	0.204	0.277445
3.456272	0.2041	0.000000
3.459673	0.2041	0.284115
3.463073	0.204	0.000000
3.466475	0.2041	112.231171
3.469877	0.2041	537.730347
3.473277	0.204	528.255737
3.476678	0.2041	6.268935
3.480078	0.204	0.000000
3.483480	0.2041	54.740417
3.486882	0.2041	0.000000
3.490282	0.204	0.000000
3.493683	0.2041	0.000000
3.497083	0.204	0.000000
3.500485	0.2041	0.000000
3.503887	0.2041	571.016663
3.507287	0.204	951.148926
3.510688	0.2041	0.000000
3.514088	0.204	0.000000
3.517490	0.2041	69.107025
3.520892	0.2041	0.000000
3.524292	0.204	0.000000
3.527693	0.2041	0.339333
3.531095	0.2041	0.000000
3.534495	0.204	0.000000
3.537897	0.2041	0.000000
3.541297	0.204	0.000000
3.544698	0.2041	0.000000
3.548100	0.2041	0.152072
3.551500	0.204	0.000000
3.554902	0.2041	0.000000
3.558302	0.204	0.000000
3.561703	0.2041	0.000000
3.565105	0.2041	0.003514
3.568505	0.204	0.000000
3.571907	0.2041	0.000852
3.575307	0.204	0.000000
3.578708	0.2041	0.000000
3.582110	0.2041	0.000000
3.585510	0.204	0.000000
3.588912	0.2041	756.866638
3.592312	0.204	2490.345703
3.595713	0.2041	1831.804932
3.599115	0.2041	0.000000
3.602515	0.204	1611.776123
3.605917	0.2041	0.000000
3.609318	0.2041	119.005287
3.612718	0.204	0.000000
3.616120	0.2041	0.000000
3.619520	0.204	302.555176
3.622922	0.2041	0.000000
3.626323	0.2041	0.000000
3.629723	0.204	0.000000
3.633125	0.2041	0.000000
3.636525	0.204	0.000000
3.639927	0.2041	0.000000
3.643328	0.2041	218.289841
3.646728	0.204	49.188583
3.650130	0.2041	0.000000
3.653530	0.204	0.000000
3.656932	0.2041	15.129669
3.660333	0.2041	0.000000
3.663733	0.204	2.751142
3.667135	0.2041	794.840515
3.670537	0.2041	906.940002
3.673937	0.204	0.000000
3.677338	0.2041	0.000000
3.680738	0.204	96.280731
3.684140	0.2041	0.000000
3.687542	0.2041	35.393147
3.690942	0.204	0.000000
3.694343	0.2041	4.352640
3.697743	0.204	0.000000
3.701145	0.2041	829.218262
3.704547	0.2041	3630.652588
3.707947	0.204	3536.530518
3.711348	0.2041	0.000000
3.714748	0.204	6284.658691
3.718150	0.2041	4787.854980
3.721552	0.2041	0.000000
3.724952	0.204	0.000000
3.728353	0.2041	0.000000
3.731753	0.204	0.000000
3.735155	0.2041	0.000000
3.738557	0.2041	1806.704590
3.741957	0.204	0.000000
3.745358	0.2041	0.000000
3.748760	0.2041	0.000000
3.752160	0.204	2683.380859
3.755562	0.2041	0.000000
3.758962	0.204	0.000000
3.762363	0.2041	344.389374
3.765765	0.2041	1310.589844
3.769165	0.204	1384.988892
3.772567	0.2041	997.003967
3.775967	0.204	2290.812012
3.779368	0.2041	0.000000
3.782770	0.2041	0.000000
3.786170	0.204	0.000000
3.789572	0.2041	4986.372070
3.792972	0.204	412.649750
3.796373	0.2041	0.000000
3.799775	0.2041	0.000000
3.803175	0.204	2405.201416
3.806577	0.2041	0.000000
3.809978	0.2041	0.000000
3.813378	0.204	890.824707
3.816780	0.2041	1055.493652
3.820180	0.204	0.000000
3.823582	0.2041	0.000000
3.826983	0.2041	0.000000
3.830383	0.204	0.000000
3.833785	0.2041	36.431435
3.837185	0.204	0.000000
3.840587	0.2041	0.000000
3.843988	0.2041	0.000000
3.847388	0.204	0.000000
3.850790	0.2041	0.000000
3.854190	0.204	0.000000
3.857592	0.2041	0.000000
3.860993	0.2041	0.000000
3.864393	0.204	0.000000
3.867795	0.2041	0.000000
3.871197	0.2041	1806.202393
3.874597	0.204	2094.403809
3.877998	0.2041	0.000000
3.881398	0.204	0.000000
3.884800	0.2041	220.743301
3.888202	0.2041	0.000000
3.891602	0.204	80.569183
3.895003	0.2041	0.000000
3.898403	0.204	0.000000
3.901805	0.2041	0.000000
3.905207	0.2041	78.837852
3.908607	0.204	0.000000
3.912008	0.2041	0.000000
3.915408	0.204	0.000000
3.918810	0.2041	0.000000
3.922212	0.2041	0.000000
3.925612	0.204	0.000000
3.929013	0.2041	0.000000
3.932413	0.204	0.000000
3.935815	0.2041	0.000000
3.939217	0.2041	0.000000
3.942617	0.204	0.000000
3.946018	0.2041	0.227157
3.949420	0.2041	0.000000
3.952820	0.204	0.000000
3.956222	0.2041	580.377625
3.959622	0.204	829.915222
3.963023	0.2041	917.369507
3.966425	0.2041	917.876099
3.969825	0.204	0.000000
3.973227	0.2041	8552.603516
3.976627	0.204	10812.142578
3.980028	0.2041	0.000000
3.983430	0.2041	0.000000
3.986830	0.204	0.000000
3.990232	0.2041	0.000000
3.993632	0.204	0.000000
3.997033	0.2041	0.000000
4.000435	0.2041	7260.029785
4.003835	0.204	0.000000
4.007237	0.2041	0.000000
4.010638	0.2041	2501.242920
4.014038	0.204	762.672058
4.017440	0.2041	569.091919
4.020840	0.204	0.000000
4.024242	0.2041	292.686188
4.027643	0.2041	0.000000
4.031043	0.204	0.000000
4.034445	0.2041	0.000000
4.037845	0.204	0.000000
4.041247	0.2041	0.000000
4.044648	0.2041	0.000000
4.048048	0.204	0.000000
4.051450	0.2041	0.000000
4.054850	0.204	0.000000
4.058252	0.2041	1.963558
4.061653	0.2041	0.000000
4.065053	0.204	1.807929
4.068455	0.2041	108.566063
4.071855	0.204	480.174286
4.075257	0.2041	432.353149
4.078658	0.2041	0.000000
4.082058	0.204	5.817638
4.085460	0.2041	43.632092
4.088862	0.2041	2.232003
4.092262	0.204	16.498133
4.095663	0.2041	0.287904
4.099063	0.204	0.000000
4.102465	0.2041	0.000000
4.105867	0.2041	0.000000
4.109267	0.204	0.389536
4.112668	0.2041	655.958374
4.116068	0.204	646.280701
4.119470	0.2041	0.000000
4.122872	0.2041	0.000000
4.126272	0.204	0.000000
4.129673	0.2041	0.000000
4.133073	0.204	0.000000
4.136475	0.2041	0.000000
4.139877	0.2041	0.000000
4.143277	0.204	0.000000
4.146678	0.2041	0.000000
4.150080	0.2041	0.000000
4.153480	0.204	0.000000
4.156882	0.2041	0.000000
4.160282	0.204	0.000000
4.163683	0.2041	3356.393799
4.167085	0.2041	5838.322266
4.170485	0.204	2624.862305
4.173887	0.2041	0.000000
4.177287	0.204	0.000000
4.180688	0.2041	757.328003
4.184090	0.2041	0.000000
4.187490	0.204	0.000000
4.190892	0.2041	0.000000
4.194292	0.204	0.000000
4.197693	0.2041	0.000000
4.201095	0.2041	4.284511
4.204495	0.204	0.000000
4.207897	0.2041	244.584122
4.211298	0.2041	0.000000
4.214698	0.204	0.000000
4.218100	0.2041	4.715523
4.221500	0.204	10.895329
4.224902	0.2041	0.000000
4.228303	0.2041	2920.624512
4.231703	0.204	3346.555176
4.235105	0.2041	0.000000
4.238505	0.204	0.000000
4.241907	0.2041	538.819092
4.245308	0.2041	0.000000
4.248708	0.204	0.000000
4.252110	0.2041	0.000000
4.255510	0.204	0.000000
4.258912	0.2041	6.915744
4.262313	0.2041	0.000000
4.265713	0.204	1103.389526
4.269115	0.2041	2866.292236
4.272515	0.204	3395.825195
4.275917	0.2041	1828.271851
4.279318	0.2041	0.537071
4.282718	0.204	0.000000
4.286120	0.2041	0.000000
4.289522	0.2041	31.450359
4.292922	0.204	80.769089
4.296323	0.2041	0.000000
4.299723	0.204	0.000000
4.303125	0.2041	0.346658
4.306527	0.2041	0.000000
4.309927	0.204	0.000000
4.313328	0.2041	3.112061
4.316728	0.204	1.592659
4.320130	0.2041	0.000000
4.323532	0.2041	0.000000
4.326932	0.204	0.000000
4.330333	0.2041	0.000000
4.333733	0.204	0.000000
4.337135	0.2041	0.000000
4.340537	0.2041	0.000000
4.343937	0.204	2893.919922
4.347338	0.2041	2658.374756
4.350740	0.2041	1674.465820
4.354140	0.204	0.000000
4.357542	0.2041	0.000000
4.360942	0.204	0.000000
4.364343	0.2041	72.055443
4.367745	0.2041	6778.569824
4.371145	0.204	10423.722656
4.374547	0.2041	3128.778809
4.377947	0.204	0.000000
4.381348	0.2041	825.065369
4.384750	0.2041	221.003540
4.388150	0.204	180.223709
4.391552	0.2041	0.000000
4.394952	0.204	0.000000
4.398353	0.2041	0.000000
4.401755	0.2041	0.000000
4.405155	0.204	0.000000
4.408557	0.2041	0.000000
4.411957	0.204	0.000000
4.415358	0.2041	0.000000
4.418760	0.2041	0.000000
4.422160	0.204	0.000000
4.425562	0.2041	0.000000
4.428963	0.2041	0.000000
4.432363	0.204	0.000000
4.435765	0.2041	0.000000
4.439165	0.204	0.000000
4.442567	0.2041	0.000000
4.445968	0.2041	0.000000
4.449368	0.204	1557.178711
4.452770	0.2041	1783.087280
4.456170	0.204	0.000000
4.459572	0.2041	0.000000
4.462973	0.2041	256.659973
4.466373	0.204	0.667706
4.469775	0.2041	0.000000
4.473175	0.204	0.116855
4.476577	0.2041	0.000000
4.479978	0.2041	2.323263
4.483378	0.204	0.000000
4.486780	0.2041	1.733060
4.490182	0.2041	0.003871
4.493582	0.204	0.000000
4.496983	0.2041	0.000000
4.500383	0.204	0.000000
4.503785	0.2041	0.020994
4.507187	0.2041	0.000104
4.510587	0.204	0.000000
4.513988	0.2041	0.000022
4.517388	0.204	0.000000
4.520790	0.2041	0.000000
4.524192	0.2041	0.000000
4.527592	0.204	0.000000
4.530993	0.2041	0.000000
4.534393	0.204	0.000000
4.537795	0.2041	0.000000
4.541197	0.2041	0.000000
4.544597	0.204	0.000000
4.547998	0.2041	0.000000
4.551398	0.204	725.740845
4.554800	0.2041	779.551514
4.558202	0.2041	0.000000
4.561602	0.204	0.000000
4.565003	0.2041	86.524681
4.568405	0.2041	0.000000
4.571805	0.204	0.000000
4.575207	0.2041	0.000000
4.578607	0.204	3.674565
4.582008	0.2041	1047.011597
4.585410	0.2041	1245.639526
4.588810	0.204	0.000000
4.592212	0.2041	0.000000
4.595612	0.204	133.647583
4.599013	0.2041	0.000000
4.602415	0.2041	801.869385
4.605815	0.204	935.104248
4.609217	0.2041	1938.877930
4.612617	0.204	2152.708984
4.616018	0.2041	0.000000
4.619420	0.2041	0.000000
4.622820	0.204	208.679459
4.626222	0.2041	0.000000
4.629623	0.2041	0.000000
4.633023	0.204	0.000000
4.636425	0.2041	25.668550
4.639825	0.204	0.000000
4.643227	0.2041	0.000000
4.646628	0.2041	0.000000
4.650028	0.204	0.000000
4.653430	0.2041	0.000000
4.656830	0.204	0.000000
4.660232	0.2041	0.000000
4.663633	0.2041	0.000000
4.667033	0.204	0.000000
4.670435	0.2041	0.000000
4.673835	0.204	0.000000
4.677237	0.2041	0.000000
4.680638	0.2041	0.000000
4.684038	0.204	0.651460
4.687440	0.2041	0.000000
4.690840	0.204	0.000000
4.694242	0.2041	1.442702
4.697643	0.2041	0.000000
4.701043	0.204	0.000000
4.704445	0.2041	0.000000
4.707847	0.2041	0.000000
4.711247	0.204	0.000000
4.714648	0.2041	0.000000
4.718048	0.204	0.000000
4.721450	0.2041	0.000000
4.724852	0.2041	0.000000
4.728252	0.204	0.078398
4.731653	0.2041	0.000000
4.735053	0.204	0.000000
4.738455	0.2041	0.013281
4.741857	0.2041	0.000000
4.745257	0.204	0.002611
4.748658	0.2041	0.000000
4.752058	0.204	0.000404
4.755460	0.2041	0.000000
4.758862	0.2041	0.000000
4.762262	0.204	0.000080
4.765663	0.2041	0.000000
4.769065	0.2041	0.000016
4.772465	0.204	0.000000
4.775867	0.2041	0.000000
4.779267	0.204	968.197205
4.782668	0.2041	1104.342041
4.786070	0.2041	0.896808
4.789470	0.204	0.346907
4.792872	0.2041	117.151848
4.796272	0.204	0.000000
4.799673	0.2041	0.000000
4.803075	0.2041	0.000000
4.806475	0.204	6.446116
4.809877	0.2041	179.564621
4.813277	0.204	0.000000
4.816678	0.2041	0.000000
4.820080	0.2041	743.874512
4.823480	0.204	900.120850
4.826882	0.2041	0.000000
4.830282	0.204	0.000000
4.833683	0.2041	77.904030
4.837085	0.2041	0.000000
4.840485	0.204	29.278305
4.843887	0.2041	0.000000
4.847288	0.2041	0.000000
4.850688	0.204	0.000000
4.854090	0.2041	0.074341
4.857490	0.204	0.000000
4.860892	0.2041	0.000000
4.864293	0.2041	0.200397
4.867693	0.204	0.000000
4.871095	0.2041	0.000000
4.874495	0.204	0.001397
4.877897	0.2041	0.000000
4.881298	0.2041	0.000000
4.884698	0.204	54.667927
4.888100	0.2041	0.000000
4.891500	0.204	0.000000
4.894902	0.2041	0.000000
4.898303	0.2041	49.500069
4.901703	0.204	44.792488
4.905105	0.2041	0.000000
4.908507	0.2041	0.000000
4.911907	0.204	9.670260
4.915308	0.2041	0.000000
4.918708	0.204	0.000000
4.922110	0.2041	0.000000
4.925512	0.2041	0.000000
4.928912	0.204	0.000000
4.932313	0.2041	0.000000
4.935713	0.204	0.085991
4.939115	0.2041	0.000000
4.942517	0.2041	0.000000
4.945917	0.204	0.000000
4.949318	0.2041	0.000000
4.952718	0.204	0.000000
4.956120	0.2041	0.000000
4.959522	0.2041	0.000000
4.962922	0.204	0.000000
4.966323	0.2041	0.000000
4.969725	0.2041	0.000000
4.973125	0.204	928.068115
4.976527	0.2041	0.000000
4.979927	0.204	0.000000
4.983328	0.2041	0.000000
4.986730	0.2041	0.000000
4.990130	0.204	0.000000
4.993532	0.2041	40.785652
4.996932	0.204	0.000000
5.000333	0.2041	182.108521
5.003735	0.2041	92.131691
5.007135	0.204	0.000000
5.010537	0.2041	0.052766
5.013937	0.204	0.000000
5.017338	0.2041	0.000000
5.020740	0.2041	3.568532
5.024140	0.204	880.931946
5.027542	0.2041	2659.828125
5.030942	0.204	1536.175903
5.034343	0.2041	0.000000
5.037745	0.2041	0.000000
5.041145	0.204	3723.708252
5.044547	0.2041	2052.439697
5.047948	0.2041	61.979076
5.051348	0.204	0.000000
5.054750	0.2041	137.298416
5.058150	0.204	0.000000
5.061552	0.2041	0.000000
5.064953	0.2041	0.000000
5.068353	0.204	10.768468
5.071755	0.2041	0.000000
5.075155	0.204	2196.494873
5.078557	0.2041	2505.370850
5.081958	0.2041	0.000000
5.085358	0.204	0.000000
5.088760	0.2041	975.142090
5.092160	0.204	0.000000
5.095562	0.2041	0.000000
5.098963	0.2041	0.000000
5.102363	0.204	0.000000
5.105765	0.2041	0.000000
5.109167	0.2041	0.000000
5.112567	0.204	0.000000
5.115968	0.2041	0.000000
5.119368	0.204	0.000000
5.122770	0.2041	0.000000
5.126172	0.2041	702.544739
5.129572	0.204	0.000000
5.132973	0.2041	0.000000
5.136373	0.204	2.659096
5.139775	0.2041	0.000000
5.143177	0.2041	0.314485
5.146577	0.204	0.000000
5.149978	0.2041	0.000000
5.153378	0.204	0.000000
5.156780	0.2041	0.000000
5.160182	0.2041	0.025622
5.163582	0.204	0.000000
5.166983	0.2041	0.000000
5.170383	0.204	0.000000
5.173785	0.2041	0.000000
5.177187	0.2041	0.000000
5.180587	0.204	0.000000
5.183988	0.2041	0.000000
5.187390	0.2041	0.000000
5.190790	0.204	0.000000
5.194192	0.2041	0.000000
5.197592	0.204	0.000000
5.200993	0.2041	758.755249
5.204395	0.2041	936.665588
5.207795	0.204	0.000000
5.211197	0.2041	0.000000
5.214597	0.204	79.598923
5.217998	0.2041	183.031937
5.221400	0.2041	401.617493
5.224800	0.204	0.000000
5.228202	0.2041	0.000000
5.231602	0.204	0.000000
5.235003	0.2041	0.000000
5.238405	0.2041	482.479340
5.241805	0.204	531.791382
5.245207	0.2041	0.000000
5.248608	0.2041	0.000000
5.252008	0.204	0.000000
5.255410	0.2041	0.000000
5.258810	0.204	0.000000
5.262212	0.2041	0.001240
5.265613	0.2041	3.323909
5.269013	0.204	0.000000
5.272415	0.2041	0.000000
5.275815	0.204	952.691345
5.279217	0.2041	0.000000
5.282618	0.2041	0.000000
5.286018	0.204	0.000000
5.289420	0.2041	0.000000
5.292820	0.204	31.212385
5.296222	0.2041	0.000000
5.299623	0.2041	0.915214
5.303023	0.204	0.000000
5.306425	0.2041	0.000000
5.309825	0.204	0.000000
5.313227	0.2041	0.002486
5.316628	0.2041	0.168319
5.320028	0.204	0.000000
5.323430	0.2041	0.000000
5.326832	0.2041	0.000000
5.330232	0.204	0.000000
5.333633	0.2041	0.000000
5.337033	0.204	0.000000
5.340435	0.2041	0.000000
5.343837	0.2041	41.295120
5.347237	0.204	47.070835
5.350638	0.2041	0.000000
5.354038	0.204	0.000000
5.357440	0.2041	4.990594
5.360842	0.2041	0.037671
5.364242	0.204	1.868368
5.367643	0.2041	437.270233
5.371043	0.204	0.000000
5.374445	0.2041	0.000000
5.377847	0.2041	0.000000
5.381247	0.204	53.038822
5.384648	0.2041	0.000000
5.388050	0.2041	701.781616
5.391450	0.204	789.984009
5.394852	0.2041	0.000000
5.398252	0.204	0.000000
5.401653	0.2041	0.000000
5.405055	0.2041	0.000000
5.408455	0.204	30.247755
5.411857	0.2041	0.000000
5.415257	0.204	0.000000
5.418658	0.2041	683.614014
5.422060	0.2041	0.000000
5.425460	0.204	0.023524
5.428862	0.2041	0.000000
5.432262	0.204	0.000000
5.435663	0.2041	0.000000
5.439065	0.2041	736.454773
5.442465	0.204	728.151978
5.445867	0.2041	0.000000
5.449268	0.2041	0.000000
5.452668	0.204	0.000000
5.456070	0.2041	0.000000
5.459470	0.204	43.613831
5.462872	0.2041	0.000000
5.466273	0.2041	0.000000
5.469673	0.204	365.407196
5.473075	0.2041	0.000000
5.476475	0.204	0.524863
5.479877	0.2041	50.333069
5.483278	0.2041	0.000000
5.486678	0.204	0.000000
5.490080	0.2041	0.000000
5.493480	0.204	0.000000
5.496882	0.2041	0.000000
5.500283	0.2041	0.000000
5.503683	0.204	0.000000
5.507085	0.2041	0.157377
5.510485	0.204	0.000000
5.513887	0.2041	0.000000
5.517288	0.2041	0.000000
5.520688	0.204	0.078239
5.524090	0.2041	0.000000
5.527492	0.2041	0.000000
5.530892	0.204	0.000000
5.534293	0.2041	0.000000
5.537693	0.204	0.000000
5.541095	0.2041	0.000000
5.544497	0.2041	0.000000
5.547897	0.204	113.507118
5.551298	0.2041	0.000000
5.554698	0.204	0.000000
5.558100	0.2041	0.000000
5.561502	0.2041	0.000000
5.564902	0.204	0.000000
5.568303	0.2041	1319.209229
5.571703	0.204	0.000000
5.575105	0.2041	0.000000
5.578507	0.2041	124.573692
5.581907	0.204	0.000000
5.585308	0.2041	46.371052
5.588710	0.2041	0.000000
5.592110	0.204	5.649014
5.595512	0.2041	0.000000
5.598912	0.204	0.000000
5.602313	0.2041	0.918392
5.605715	0.2041	0.000000
5.609115	0.204	0.262879
5.612517	0.2041	0.000000
5.615917	0.204	0.031480
5.619318	0.2041	0.005128
5.622720	0.2041	0.000000
5.626120	0.204	0.006391
5.629522	0.2041	0.000000
5.632922	0.204	0.001504
5.636323	0.2041	0.000000
5.639725	0.2041	0.000000
5.643125	0.204	0.000063
5.646527	0.2041	0.000000
5.649927	0.204	0.000000
5.653328	0.2041	0.000000
5.656730	0.2041	0.000008
5.660130	0.204	0.000000
5.663532	0.2041	0.000000
5.666933	0.2041	0.000000
5.670333	0.204	0.000000
5.673735	0.2041	0.579989
5.677135	0.204	0.000000
5.680537	0.2041	0.498884
5.683938	0.2041	249.104156
5.687338	0.204	254.003876
5.690740	0.2041	0.000000
5.694140	0.204	0.000000
5.697542	0.2041	24.390488
5.700943	0.2041	0.000000
5.704343	0.204	0.000000
5.707745	0.2041	0.000000
5.711145	0.204	1.054156
5.714547	0.2041	0.000000
5.717948	0.2041	0.000000
5.721348	0.204	5.541669
5.724750	0.2041	0.000000
5.728152	0.2041	0.000000
5.731552	0.204	0.042663
5.734953	0.2041	0.000000
5.738353	0.204	0.125705
5.741755	0.2041	0.000000
5.745157	0.2041	0.000000
5.748557	0.204	0.000000
5.751958	0.2041	0.000000
5.755358	0.204	0.000973
5.758760	0.2041	0.000000
5.762162	0.2041	0.000000
5.765562	0.204	0.000000
5.768963	0.2041	0.000000
5.772363	0.204	0.000000
5.775765	0.2041	0.000000
5.779167	0.2041	0.000000
5.782567	0.204	0.000000
5.785968	0.2041	0.000000
5.789368	0.204	0.000000
5.792770	0.2041	0.000000
5.796172	0.2041	0.000000
5.799572	0.204	0.000000
5.802973	0.2041	0.000000
5.806375	0.2041	0.000000
5.809775	0.204	0.779020
5.813177	0.2041	0.000000
5.816577	0.204	0.000000
5.819978	0.2041	0.072096
5.823380	0.2041	0.000000
5.826780	0.204	0.000000
5.830182	0.2041	0.000000
5.833582	0.204	0.000000
5.836983	0.2041	0.000000
5.840385	0.2041	0.000000
5.843785	0.204	0.000000
5.847187	0.2041	0.000000
5.850587	0.204	0.043709
5.853988	0.2041	0.000000
5.857390	0.2041	0.000000
5.860790	0.204	0.000000
5.864192	0.2041	0.000000
5.867593	0.2041	0.000000
5.870993	0.204	0.000000
5.874395	0.2041	0.000000
5.877795	0.204	0.000000
5.881197	0.2041	0.000000
5.884598	0.2041	0.000000
5.887998	0.204	131.193909
5.891400	0.2041	0.059788
5.894800	0.204	736.674500
5.898202	0.2041	841.131042
5.901603	0.2041	0.741413
5.905003	0.204	4.693696
5.908405	0.2041	88.505531
5.911805	0.204	0.000000
5.915207	0.2041	0.000000
5.918608	0.2041	0.000000
5.922008	0.204	4.088845
5.925410	0.2041	0.000000
5.928810	0.204	0.000000
5.932212	0.2041	0.000000
5.935613	0.2041	0.000000
5.939013	0.204	0.000000
5.942415	0.2041	2.202271
5.945817	0.2041	0.000000
5.949217	0.204	0.000000
5.952618	0.2041	0.872866
5.956018	0.204	0.000000
5.959420	0.2041	0.190326
5.962822	0.2041	0.000000
5.966222	0.204	0.000000
5.969623	0.2041	0.000000
5.973023	0.204	0.000000
5.976425	0.2041	0.000000
5.979827	0.2041	0.000000
5.983227	0.204	0.000000
5.986628	0.2041	0.000000
5.990028	0.204	574.127380
5.993430	0.2041	0.000000
5.996832	0.2041	0.000000
6.000232	0.204	61.083488
6.003633	0.2041	0.000000
6.007035	0.2041	2995.214111
6.010435	0.204	3389.634277
6.013837	0.2041	4.469438
6.017237	0.204	0.000000
6.020638	0.2041	362.008942
6.024040	0.2041	0.000000
6.027440	0.204	132.281189
6.030842	0.2041	0.000000
6.034242	0.204	619.044312
6.037643	0.2041	685.393005
6.041045	0.2041	0.000000
6.044445	0.204	0.000000
6.047847	0.2041	71.317146
6.051247	0.204	0.000000
6.054648	0.2041	26.523922
6.058050	0.2041	0.000000
6.061450	0.204	3.309047
6.064852	0.2041	70.065086
6.068253	0.2041	971.706482
6.071653	0.204	1111.717896
6.075055	0.2041	0.000000
6.078455	0.204	4.905554
6.081857	0.2041	0.000000
6.085258	0.2041	0.000000
6.088658	0.204	30.505213
6.092060	0.2041	0.000000
6.095460	0.204	3.005160
6.098862	0.2041	0.000000
6.102263	0.2041	88.377518
6.105663	0.204	0.000000
6.109065	0.2041	0.000000
6.112465	0.204	9.626086
6.115867	0.2041	0.000000
6.119268	0.2041	58.466461
6.122668	0.204	1076.813354
6.126070	0.2041	1137.042236
6.129470	0.204	0.000000
6.132872	0.2041	0.000000
6.136273	0.2041	0.000000
6.139673	0.204	0.000000
6.143075	0.2041	0.000000
6.146477	0.2041	0.000000
6.149877	0.204	0.000000
6.153278	0.2041	0.000000
6.156678	0.204	436.762268
6.160080	0.2041	542.823730
6.163482	0.2041	0.000000
6.166882	0.204	0.000000
6.170283	0.2041	66.043716
6.173683	0.204	0.000000
6.177085	0.2041	21.995193
6.180487	0.2041	417.024780
6.183887	0.204	486.317352
6.187288	0.2041	0.000000
6.190688	0.204	0.000000
6.194090	0.2041	51.751522
6.197492	0.2041	0.089939
6.200892	0.204	18.986895
6.204293	0.2041	0.000000
6.207695	0.2041	0.000000
6.211095	0.204	0.000000
6.214497	0.2041	0.000000
6.217897	0.204	337.508179
6.221298	0.2041	423.154480
6.224700	0.2041	0.000000
6.228100	0.204	0.000000
6.231502	0.2041	2028.840942
6.234902	0.204	2338.460693
6.238303	0.2041	0.000000
6.241705	0.2041	3185.690674
6.245105	0.204	3939.860840
6.248507	0.2041	0.000000
6.251907	0.204	81.664528
6.255308	0.2041	385.411682
6.258710	0.2041	0.000000
6.262110	0.204	143.491516
6.265512	0.2041	0.000000
6.268912	0.204	0.000000
6.272313	0.2041	0.000000
6.275715	0.2041	0.000000
6.279115	0.204	0.000000
6.282517	0.2041	0.000000
6.285918	0.2041	0.000000
6.289318	0.204	0.000000
6.292720	0.2041	0.000000
6.296120	0.204	0.000000
6.299522	0.2041	0.017771
6.302923	0.2041	0.000000
6.306323	0.204	0.000000
6.309725	0.2041	520.721313
6.313125	0.204	0.000000
6.316527	0.2041	0.000000
6.319928	0.2041	0.000000
6.323328	0.204	60.593666
6.326730	0.2041	0.000000
6.330130	0.204	22.427536
6.333532	0.2041	0.000000
6.336933	0.2041	1029.103882
6.340333	0.204	0.000000
6.343735	0.2041	0.000000
6.347135	0.204	0.000000
6.350537	0.2041	221.867813
6.353938	0.2041	0.000000
6.357338	0.204	45.818798
6.360740	0.2041	0.000000
6.364142	0.2041	5.690753
6.367542	0.204	0.000000
6.370943	0.2041	0.000000
6.374343	0.204	1.394714
6.377745	0.2041	0.000611
6.381147	0.2041	0.000000
6.384547	0.204	0.000000
6.387948	0.2041	0.000000
6.391348	0.204	0.000000
6.394750	0.2041	0.262759
6.398152	0.2041	0.000000
6.401552	0.204	0.272388
6.404953	0.2041	1503.197388
6.408353	0.204	1680.568848
6.411755	0.2041	0.000000
6.415157	0.2041	0.000000
6.418557	0.204	0.000000
6.421958	0.2041	0.000000
6.425360	0.2041	66.145943
6.428760	0.204	0.000000
6.432162	0.2041	0.000000
6.435562	0.204	2320.694336
6.438963	0.2041	434.960419
6.442365	0.2041	0.000000
6.445765	0.204	0.000000
6.449167	0.2041	46.862389
6.452567	0.204	0.000000
6.455968	0.2041	53.817230
6.459370	0.2041	0.000000
6.462770	0.204	2.088120
6.466172	0.2041	0.624310
6.469572	0.204	0.073537
6.472973	0.2041	0.000000
6.476375	0.2041	0.000000
6.479775	0.204	0.000000
6.483177	0.2041	0.000000
6.486577	0.204	0.000000
6.489978	0.2041	0.000000
6.493380	0.2041	0.000000
6.496780	0.204	7.173263
6.500182	0.2041	0.000000
6.503583	0.2041	0.000000
6.506983	0.204	0.000000
6.510385	0.2041	0.000000
6.513785	0.204	1.073015
6.517187	0.2041	0.000000
6.520588	0.2041	3596.486572
6.523988	0.204	3549.229492
6.527390	0.2041	1184.330322
6.530790	0.204	0.000000
6.534192	0.2041	0.000000
6.537593	0.2041	165.789978
6.540993	0.204	1084.162720
6.544395	0.2041	1315.649536
6.547795	0.204	66.730095
6.551197	0.2041	82.963997
6.554598	0.2041	0.000000
6.557998	0.204	0.000000
6.561400	0.2041	54.573086
6.564802	0.2041	0.000000
6.568202	0.204	0.000000
6.571603	0.2041	1.763101
6.575003	0.204	0.000000
6.578405	0.2041	0.000000
6.581807	0.2041	0.000000
6.585207	0.204	0.000000
6.588608	0.2041	0.000000
6.592008	0.204	0.000000
6.595410	0.2041	45.648308
6.598812	0.2041	1038.241821
6.602212	0.204	1175.965454
6.605613	0.2041	0.000000
6.609013	0.204	0.000000
6.612415	0.2041	1253.679321
6.615817	0.2041	2336.417725
6.619217	0.204	1238.212280
6.622618	0.2041	0.000000
6.626018	0.204	0.000000
6.629420	0.2041	0.000000
6.632822	0.2041	0.000000
6.636222	0.204	133.875031
6.639623	0.2041	2.959593
6.643025	0.2041	0.000000
6.646425	0.204	0.000000
6.649827	0.2041	0.000000
6.653227	0.204	0.000000
6.656628	0.2041	0.000000
6.660030	0.2041	0.000000
6.663430	0.204	0.000000
6.666832	0.2041	0.649042
6.670232	0.204	0.233377
6.673633	0.2041	0.000000
6.677035	0.2041	0.243415
6.680435	0.204	556.832825
6.683837	0.2041	601.020996
6.687237	0.204	0.000000
6.690638	0.2041	0.000000
6.694040	0.2041	63.755299
6.697440	0.204	0.834064
6.700842	0.2041	0.000000
6.704243	0.2041	0.227531
6.707643	0.204	0.000000
6.711045	0.2041	0.000000
6.714445	0.204	0.000000
6.717847	0.2041	0.681231
6.721248	0.2041	0.000000
6.724648	0.204	0.352474
6.728050	0.2041	0.000000
6.731450	0.204	0.058483
6.734852	0.2041	0.000000
6.738253	0.2041	0.000000
6.741653	0.204	0.000000
6.745055	0.2041	0.000000
6.748455	0.204	0.000000
6.751857	0.2041	0.000000
6.755258	0.2041	0.000000
6.758658	0.204	54.233063
6.762060	0.2041	0.000000
6.765462	0.2041	0.000000
6.768862	0.204	0.000000
6.772263	0.2041	2063.743164
6.775663	0.204	2439.374756
6.779065	0.2041	0.000000
6.782467	0.2041	0.000000
6.785867	0.204	249.707123
6.789268	0.2041	0.000000
6.792668	0.204	0.000000
6.796070	0.2041	0.000000
6.799472	0.2041	16.785616
6.802872	0.204	0.000000
6.806273	0.2041	0.000000
6.809673	0.204	1.859616
6.813075	0.2041	0.000000
6.816477	0.2041	0.648787
6.819877	0.204	0.000000
6.823278	0.2041	62.638699
6.826678	0.204	71.362549
6.830080	0.2041	0.000000
6.833482	0.2041	0.000000
6.836882	0.204	7.567356
6.840283	0.2041	0.000000
6.843685	0.2041	0.000000
6.847085	0.204	0.000000
6.850487	0.2041	0.000000
6.853887	0.204	0.000000
6.857288	0.2041	0.000000
6.860690	0.2041	0.000000
6.864090	0.204	0.000000
6.867492	0.2041	0.000000
6.870892	0.204	0.000000
6.874293	0.2041	0.001905
6.877695	0.2041	0.000000
6.881095	0.204	0.000000
6.884497	0.2041	0.000000
6.887897	0.204	0.000000
6.891298	0.2041	0.000000
6.894700	0.2041	0.000000
6.898100	0.204	0.000000
6.901502	0.2041	0.953880
6.904903	0.2041	0.000000
6.908303	0.204	0.781323
6.911705	0.2041	0.000000
6.915105	0.204	0.170401
6.918507	0.2041	0.000000
6.921908	0.2041	0.000000
6.925308	0.204	0.000000
6.928710	0.2041	1.208954
6.932110	0.204	0.013783
6.935512	0.2041	0.000000
6.938913	0.2041	0.051501
6.942313	0.204	0.000000
6.945715	0.2041	0.000000
6.949115	0.204	0.000000
6.952517	0.2041	0.000000
6.955918	0.2041	0.000000
6.959318	0.204	0.000000
6.962720	0.2041	0.000000
6.966120	0.204	0.000000
6.969522	0.2041	153.310760
6.972923	0.2041	0.000000
6.976323	0.204	0.000000
6.979725	0.2041	1.479584
6.983127	0.2041	0.000000
6.986527	0.204	0.000000
6.989928	0.2041	54.979645
6.993328	0.204	0.000000
