URL	chrom://isq7ci2006004/ChromeleonLocal/Instrument Data/Aspuru-Guzik/Stanley/2024_12_16_005c-H.seq/306.smp/MS_F1_[366.0-366.3].channel/MS_F1_[366.0-366.3].chm
Channel	MS_F1_[366.0-366.3]

Injection Information:
Data Vault	ChromeleonLocal
Sequence	2024_12_16_005c-H
Name	005c-H3F_conc
Number	7
Position	5
Comment	
Processing Method	Basic Quantitative
Instrument Method	2024_12_16_005c-H - Copy
Type	Unknown
Status	Finished
Inject Time	12/16/2024 3:47:11 PM -05:00
Volume (µl)	3.0000
Dilution Factor	1.0000
Weight	1.0000

Chromatogram Data Information:
Time Min. (min)	2.500490
Time Max. (min)	6.996633
Data Points	1323
Detector	MSDevice
Generating Data System	Chromeleon 7.3 Build 60919 (5efd55c28726aa174740e3ad3b435409b51aa6a1)
Exporting Data System	Chromeleon 7.3.0.0
Operator	aspuruguzik
Signal Quantity	Intensity
Signal Unit	counts
Signal Min.	0.000000
Signal Max.	30468.126953
Channel	MS_F1_[366.0-366.3]
Driver Name	Thermo.MassSpectrometer
Channel Type	Evaluation
Min. Step (s)	0.204
Max. Step (s)	0.2041
Average Step (s)	0.20406097

Signal Parameter Information:
Signal Info	

Chromatogram Data:
Time (min)	Step (s)	Value (counts)
2.500490	n.a.	0.000000
2.503890	0.204	0.000000
2.507292	0.2041	0.000000
2.510692	0.204	0.000000
2.514093	0.2041	0.000000
2.517495	0.2041	162.084076
2.520895	0.204	0.000000
2.524297	0.2041	0.000000
2.527698	0.2041	0.000000
2.531098	0.204	0.000000
2.534500	0.2041	0.000000
2.537900	0.204	0.000000
2.541302	0.2041	0.000000
2.544703	0.2041	0.000000
2.548103	0.204	0.000000
2.551505	0.2041	0.000000
2.554905	0.204	0.000000
2.558307	0.2041	0.041957
2.561708	0.2041	0.000000
2.565108	0.204	0.000000
2.568510	0.2041	0.000000
2.571910	0.204	67.181145
2.575312	0.2041	107.640274
2.578713	0.2041	56.692894
2.582113	0.204	84.678024
2.585515	0.2041	0.000000
2.588917	0.2041	0.000000
2.592317	0.204	669.593933
2.595718	0.2041	807.476257
2.599118	0.204	82.169533
2.602520	0.2041	0.000000
2.605922	0.2041	214.237259
2.609322	0.204	95.589699
2.612723	0.2041	25.855970
2.616123	0.204	2.659701
2.619525	0.2041	14.707253
2.622927	0.2041	0.000000
2.626327	0.204	4.306842
2.629728	0.2041	0.000000
2.633128	0.204	0.470151
2.636530	0.2041	0.000000
2.639932	0.2041	0.013153
2.643332	0.204	0.000000
2.646733	0.2041	0.002678
2.650133	0.204	1345.419800
2.653535	0.2041	1596.602295
2.656937	0.2041	90.883926
2.660337	0.204	0.000000
2.663738	0.2041	162.800171
2.667140	0.2041	13.637562
2.670540	0.204	59.879616
2.673942	0.2041	4.198559
2.677342	0.204	7.367023
2.680743	0.2041	0.395303
2.684145	0.2041	0.000000
2.687545	0.204	1.212749
2.690947	0.2041	0.096671
2.694347	0.204	0.000000
2.697748	0.2041	0.024362
2.701150	0.2041	0.000000
2.704550	0.204	0.000000
2.707952	0.2041	0.000699
2.711352	0.204	0.043184
2.714753	0.2041	0.000000
2.718155	0.2041	0.000000
2.721555	0.204	0.000000
2.724957	0.2041	0.000000
2.728357	0.204	0.000000
2.731758	0.2041	0.000000
2.735160	0.2041	0.000000
2.738560	0.204	181.628510
2.741962	0.2041	207.153336
2.745363	0.2041	0.000000
2.748763	0.204	0.000000
2.752165	0.2041	21.988655
2.755565	0.204	0.000000
2.758967	0.2041	1175.835571
2.762368	0.2041	949.966187
2.765768	0.204	0.000000
2.769170	0.2041	0.000000
2.772570	0.204	454.276184
2.775972	0.2041	0.000000
2.779373	0.2041	0.000000
2.782773	0.204	0.000000
2.786175	0.2041	0.000000
2.789575	0.204	1376.688477
2.792977	0.2041	1957.248779
2.796378	0.2041	562.218750
2.799778	0.204	791.286133
2.803180	0.2041	0.000000
2.806582	0.2041	0.000000
2.809982	0.204	158.672058
2.813383	0.2041	0.000000
2.816783	0.204	41.772285
2.820185	0.2041	0.000000
2.823587	0.2041	0.000000
2.826987	0.204	0.000000
2.830388	0.2041	0.000000
2.833788	0.204	5.827755
2.837190	0.2041	1549.654785
2.840592	0.2041	0.000000
2.843992	0.204	0.000000
2.847393	0.2041	0.000000
2.850793	0.204	0.000000
2.854195	0.2041	0.000000
2.857597	0.2041	0.000000
2.860997	0.204	0.000000
2.864398	0.2041	3.602193
2.867798	0.204	0.000000
2.871200	0.2041	0.000000
2.874602	0.2041	0.607807
2.878002	0.204	0.000000
2.881403	0.2041	0.000000
2.884805	0.2041	0.000000
2.888205	0.204	0.000000
2.891607	0.2041	0.002462
2.895007	0.204	0.000000
2.898408	0.2041	0.000000
2.901810	0.2041	0.000000
2.905210	0.204	0.000000
2.908612	0.2041	1.372376
2.912012	0.204	0.000000
2.915413	0.2041	1.402310
2.918815	0.2041	0.000000
2.922215	0.204	0.000000
2.925617	0.2041	1487.827271
2.929017	0.204	1543.844849
2.932418	0.2041	0.000000
2.935820	0.2041	0.000000
2.939220	0.204	0.000000
2.942622	0.2041	0.000000
2.946023	0.2041	63.844254
2.949423	0.204	0.000000
2.952825	0.2041	0.000000
2.956225	0.204	0.146956
2.959627	0.2041	0.000000
2.963028	0.2041	1.316079
2.966428	0.204	0.000000
2.969830	0.2041	0.000000
2.973230	0.204	0.000000
2.976632	0.2041	0.120124
2.980033	0.2041	0.040092
2.983433	0.204	0.000000
2.986835	0.2041	0.044096
2.990235	0.204	0.000000
2.993637	0.2041	0.009913
2.997038	0.2041	0.000000
3.000438	0.204	0.000000
3.003840	0.2041	0.000472
3.007240	0.204	0.000000
3.010642	0.2041	252.172256
3.014043	0.2041	0.000000
3.017443	0.204	0.000000
3.020845	0.2041	0.000000
3.024247	0.2041	0.000000
3.027647	0.204	0.000000
3.031048	0.2041	0.000000
3.034448	0.204	0.000000
3.037850	0.2041	0.000000
3.041252	0.2041	0.000000
3.044652	0.204	0.000000
3.048053	0.2041	0.000000
3.051453	0.204	0.000000
3.054855	0.2041	0.000000
3.058257	0.2041	0.000000
3.061657	0.204	0.000000
3.065058	0.2041	0.000000
3.068458	0.204	0.000000
3.071860	0.2041	0.000000
3.075262	0.2041	0.000000
3.078662	0.204	0.000000
3.082063	0.2041	0.000000
3.085465	0.2041	385.282501
3.088865	0.204	0.150280
3.092267	0.2041	0.000000
3.095667	0.204	0.000000
3.099068	0.2041	0.000000
3.102470	0.2041	14.222219
3.105870	0.204	0.000000
3.109272	0.2041	0.000000
3.112672	0.204	0.000000
3.116073	0.2041	0.000000
3.119475	0.2041	0.000000
3.122875	0.204	0.000000
3.126277	0.2041	0.000000
3.129677	0.204	0.000000
3.133078	0.2041	0.000000
3.136480	0.2041	0.000000
3.139880	0.204	0.000000
3.143282	0.2041	0.000000
3.146682	0.204	0.000000
3.150083	0.2041	0.000000
3.153485	0.2041	0.000000
3.156885	0.204	0.000000
3.160287	0.2041	0.000000
3.163688	0.2041	0.000000
3.167088	0.204	0.000000
3.170490	0.2041	0.000000
3.173890	0.204	0.000000
3.177292	0.2041	14.111780
3.180693	0.2041	0.000000
3.184093	0.204	0.000000
3.187495	0.2041	0.000000
3.190895	0.204	0.000000
3.194297	0.2041	0.000000
3.197698	0.2041	0.000000
3.201098	0.204	0.000000
3.204500	0.2041	0.000000
3.207900	0.204	0.000000
3.211302	0.2041	0.000000
3.214703	0.2041	0.000000
3.218103	0.204	0.001974
3.221505	0.2041	0.000000
3.224907	0.2041	0.000091
3.228307	0.204	0.000000
3.231708	0.2041	0.000000
3.235108	0.204	0.000000
3.238510	0.2041	0.000000
3.241912	0.2041	0.000011
3.245312	0.204	0.000000
3.248713	0.2041	0.000000
3.252113	0.204	0.000000
3.255515	0.2041	0.837020
3.258917	0.2041	0.364185
3.262317	0.204	0.000000
3.265718	0.2041	0.331469
3.269118	0.204	43.320454
3.272520	0.2041	49.667889
3.275922	0.2041	0.000000
3.279322	0.204	0.000000
3.282723	0.2041	5.265002
3.286125	0.2041	0.000000
3.289525	0.204	1.937197
3.292927	0.2041	0.000000
3.296327	0.204	1753.600708
3.299728	0.2041	2002.905029
3.303130	0.2041	1.186797
3.306530	0.204	0.000000
3.309932	0.2041	212.146454
3.313332	0.204	0.468166
3.316733	0.2041	78.035500
3.320135	0.2041	0.000000
3.323535	0.204	0.000000
3.326937	0.2041	0.000000
3.330337	0.204	0.000000
3.333738	0.2041	0.000000
3.337140	0.2041	0.000000
3.340540	0.204	0.000000
3.343942	0.2041	0.000547
3.347342	0.204	0.000000
3.350743	0.2041	0.003940
3.354145	0.2041	0.000000
3.357545	0.204	0.000000
3.360947	0.2041	0.000019
3.364348	0.2041	0.000000
3.367748	0.204	0.000003
3.371150	0.2041	0.000114
3.374550	0.204	0.000061
3.377952	0.2041	0.000000
3.381353	0.2041	0.000000
3.384753	0.204	0.000000
3.388155	0.2041	0.000000
3.391555	0.204	0.000000
3.394957	0.2041	0.000000
3.398358	0.2041	0.000000
3.401758	0.204	0.000000
3.405160	0.2041	0.000000
3.408560	0.204	0.000000
3.411962	0.2041	0.000000
3.415363	0.2041	0.000000
3.418763	0.204	0.000000
3.422165	0.2041	0.000000
3.425567	0.2041	0.000000
3.428967	0.204	0.000000
3.432368	0.2041	0.000000
3.435768	0.204	0.000000
3.439170	0.2041	0.000000
3.442572	0.2041	0.000000
3.445972	0.204	0.000000
3.449373	0.2041	0.000000
3.452773	0.204	0.398146
3.456175	0.2041	0.311209
3.459577	0.2041	0.000000
3.462977	0.204	0.000000
3.466378	0.2041	0.000000
3.469778	0.204	0.000000
3.473180	0.2041	0.000000
3.476582	0.2041	0.000000
3.479982	0.204	260.654572
3.483383	0.2041	213.568985
3.486783	0.204	1948.455322
3.490185	0.2041	2271.022705
3.493587	0.2041	0.000000
3.496987	0.204	0.000000
3.500388	0.2041	245.441971
3.503790	0.2041	1.422161
3.507190	0.204	103.832100
3.510592	0.2041	0.165718
3.513992	0.204	1556.161621
3.517393	0.2041	1903.680542
3.520795	0.2041	0.000000
3.524195	0.204	0.000000
3.527597	0.2041	186.142105
3.530997	0.204	0.000000
3.534398	0.2041	68.739220
3.537800	0.2041	0.000000
3.541200	0.204	8.476094
3.544602	0.2041	0.000000
3.548002	0.204	0.000000
3.551403	0.2041	1.677558
3.554805	0.2041	0.000000
3.558205	0.204	0.000000
3.561607	0.2041	0.000000
3.565008	0.2041	0.000000
3.568408	0.204	0.000000
3.571810	0.2041	0.000000
3.575210	0.204	0.000000
3.578612	0.2041	0.000000
3.582013	0.2041	0.000000
3.585413	0.204	0.000000
3.588815	0.2041	0.000000
3.592215	0.204	0.000000
3.595617	0.2041	0.000000
3.599018	0.2041	0.000061
3.602418	0.204	0.000000
3.605820	0.2041	0.000000
3.609220	0.204	0.000000
3.612622	0.2041	0.000000
3.616023	0.2041	0.000000
3.619423	0.204	0.000000
3.622825	0.2041	0.000000
3.626225	0.204	0.000000
3.629627	0.2041	0.000000
3.633028	0.2041	507.869537
3.636428	0.204	579.286743
3.639830	0.2041	0.000000
3.643232	0.2041	0.177393
3.646632	0.204	61.466938
3.650033	0.2041	0.000000
3.653433	0.204	24.407099
3.656835	0.2041	291.515137
3.660237	0.2041	345.641876
3.663637	0.204	0.000000
3.667038	0.2041	0.000000
3.670438	0.204	0.000000
3.673840	0.2041	0.000000
3.677242	0.2041	0.000000
3.680642	0.204	0.000000
3.684043	0.2041	1.655785
3.687443	0.204	0.000000
3.690845	0.2041	0.000000
3.694247	0.2041	0.000000
3.697647	0.204	0.000000
3.701048	0.2041	0.000000
3.704450	0.2041	0.000000
3.707850	0.204	0.003646
3.711252	0.2041	0.000000
3.714652	0.204	0.000000
3.718053	0.2041	4843.249512
3.721455	0.2041	0.000000
3.724855	0.204	0.000000
3.728257	0.2041	0.000000
3.731657	0.204	0.000000
3.735058	0.2041	0.000000
3.738460	0.2041	0.000000
3.741860	0.204	0.000000
3.745262	0.2041	0.000000
3.748662	0.204	0.000000
3.752063	0.2041	0.000000
3.755465	0.2041	0.000000
3.758865	0.204	0.000000
3.762267	0.2041	1758.372559
3.765667	0.204	7171.717773
3.769068	0.2041	10242.013672
3.772470	0.2041	7161.418457
3.775870	0.204	16048.108398
3.779272	0.2041	24574.480469
3.782673	0.2041	30468.126953
3.786073	0.204	27425.664063
3.789475	0.2041	3937.146240
3.792875	0.204	0.000000
3.796277	0.2041	6980.692871
3.799678	0.2041	0.000000
3.803078	0.204	4463.408203
3.806480	0.2041	1778.459717
3.809880	0.204	0.000000
3.813282	0.2041	3274.777832
3.816683	0.2041	0.000000
3.820083	0.204	0.000000
3.823485	0.2041	0.000000
3.826885	0.204	0.000000
3.830287	0.2041	94.005455
3.833688	0.2041	0.000000
3.837088	0.204	0.000000
3.840490	0.2041	27.942322
3.843892	0.2041	0.000000
3.847292	0.204	0.000000
3.850693	0.2041	4762.702148
3.854093	0.204	5511.292480
3.857495	0.2041	0.000000
3.860897	0.2041	0.000000
3.864297	0.204	0.000000
3.867698	0.2041	0.000000
3.871098	0.204	0.000000
3.874500	0.2041	0.000000
3.877902	0.2041	20.197681
3.881302	0.204	0.000000
3.884703	0.2041	0.000000
3.888103	0.204	0.000000
3.891505	0.2041	0.000000
3.894907	0.2041	0.000000
3.898307	0.204	0.000000
3.901708	0.2041	0.000000
3.905108	0.204	0.000000
3.908510	0.2041	0.000000
3.911912	0.2041	0.000000
3.915312	0.204	0.000000
3.918713	0.2041	0.000000
3.922115	0.2041	0.000000
3.925515	0.204	1187.016235
3.928917	0.2041	1302.122437
3.932317	0.204	0.000000
3.935718	0.2041	0.000000
3.939120	0.2041	0.000000
3.942520	0.204	0.000000
3.945922	0.2041	1439.916626
3.949322	0.204	3765.172119
3.952723	0.2041	2464.924316
3.956125	0.2041	0.000000
3.959525	0.204	9167.950195
3.962927	0.2041	10213.457031
3.966327	0.204	6652.328613
3.969728	0.2041	8841.572266
3.973130	0.2041	0.000000
3.976530	0.204	15244.887695
3.979932	0.2041	11224.208008
3.983333	0.2041	9954.805664
3.986733	0.204	4665.669434
3.990135	0.2041	7228.049805
3.993535	0.204	0.000000
3.996937	0.2041	0.000000
4.000338	0.2041	1494.172974
4.003738	0.204	0.000000
4.007140	0.2041	420.809052
4.010540	0.204	0.000000
4.013942	0.2041	630.872009
4.017343	0.2041	722.924744
4.020743	0.204	0.000000
4.024145	0.2041	834.363220
4.027545	0.204	2893.724365
4.030947	0.2041	0.000000
4.034348	0.2041	0.000000
4.037748	0.204	1149.152344
4.041150	0.2041	1435.989990
4.044552	0.2041	35.644024
4.047952	0.204	0.000000
4.051353	0.2041	132.947495
4.054753	0.204	0.000000
4.058155	0.2041	0.000000
4.061557	0.2041	0.000000
4.064957	0.204	0.000000
4.068358	0.2041	0.000000
4.071758	0.204	0.000000
4.075160	0.2041	0.000000
4.078562	0.2041	0.000000
4.081962	0.204	0.000000
4.085363	0.2041	0.000000
4.088763	0.204	303.446014
4.092165	0.2041	316.790497
4.095567	0.2041	0.000000
4.098967	0.204	0.305963
4.102368	0.2041	34.254688
4.105768	0.204	0.000000
4.109170	0.2041	0.000000
4.112572	0.2041	0.000000
4.115972	0.204	1.521744
4.119373	0.2041	0.000000
4.122775	0.2041	0.002531
4.126175	0.204	0.252847
4.129577	0.2041	0.000000
4.132977	0.204	0.000000
4.136378	0.2041	786.485779
4.139780	0.2041	897.112305
4.143180	0.204	0.000000
4.146582	0.2041	0.000000
4.149982	0.204	0.000000
4.153383	0.2041	86.400749
4.156785	0.2041	0.000000
4.160185	0.204	0.000000
4.163587	0.2041	0.000000
4.166987	0.204	0.000000
4.170388	0.2041	0.000000
4.173790	0.2041	0.000000
4.177190	0.204	0.000000
4.180592	0.2041	0.000000
4.183993	0.2041	0.000000
4.187393	0.204	0.000000
4.190795	0.2041	476.066925
4.194195	0.204	505.440735
4.197597	0.2041	5.459998
4.200998	0.2041	0.000000
4.204398	0.204	0.000000
4.207800	0.2041	0.000000
4.211200	0.204	19.167786
4.214602	0.2041	0.000000
4.218003	0.2041	2.675552
4.221403	0.204	0.000000
4.224805	0.2041	0.000000
4.228205	0.204	0.000000
4.231607	0.2041	0.000000
4.235008	0.2041	0.000000
4.238408	0.204	0.000000
4.241810	0.2041	0.012085
4.245210	0.204	0.000000
4.248612	0.2041	0.000000
4.252013	0.2041	2595.605957
4.255413	0.204	977.268433
4.258815	0.2041	62.580742
4.262217	0.2041	947.765564
4.265617	0.204	0.000000
4.269018	0.2041	0.000000
4.272418	0.204	1078.389648
4.275820	0.2041	1247.218384
4.279222	0.2041	0.000000
4.282622	0.204	0.000000
4.286023	0.2041	125.527802
4.289423	0.204	0.000000
4.292825	0.2041	46.279961
4.296227	0.2041	0.000000
4.299627	0.204	0.000000
4.303028	0.2041	0.000000
4.306428	0.204	928.775818
4.309830	0.2041	1061.259277
4.313232	0.2041	0.000000
4.316632	0.204	0.000000
4.320033	0.2041	112.385155
4.323433	0.204	0.000000
4.326835	0.2041	0.000000
4.330237	0.2041	184.813797
4.333637	0.204	234.395386
4.337038	0.2041	0.000000
4.340440	0.2041	0.000000
4.343840	0.204	25.152145
4.347242	0.2041	0.000000
4.350642	0.204	985.815002
4.354043	0.2041	1114.001221
4.357445	0.2041	1.122118
4.360845	0.204	0.000000
4.364247	0.2041	133.857193
4.367647	0.204	0.000000
4.371048	0.2041	0.000000
4.374450	0.2041	0.000000
4.377850	0.204	0.000000
4.381252	0.2041	4.249281
4.384652	0.204	1173.181152
4.388053	0.2041	1606.600098
4.391455	0.2041	0.000000
4.394855	0.204	0.000000
4.398257	0.2041	0.000000
4.401658	0.2041	0.000000
4.405058	0.204	682.558167
4.408460	0.2041	2310.257080
4.411860	0.204	1937.344727
4.415262	0.2041	355.664093
4.418663	0.2041	695.460144
4.422063	0.204	87.211380
4.425465	0.2041	95.046219
4.428865	0.204	243.642380
4.432267	0.2041	0.000000
4.435668	0.2041	33.174042
4.439068	0.204	0.000000
4.442470	0.2041	0.000000
4.445870	0.204	5.133498
4.449272	0.2041	0.000000
4.452673	0.2041	0.000000
4.456073	0.204	0.000000
4.459475	0.2041	0.000000
4.462875	0.204	0.000000
4.466277	0.2041	0.000000
4.469678	0.2041	0.000000
4.473078	0.204	0.000000
4.476480	0.2041	0.000000
4.479882	0.2041	449.463013
4.483282	0.204	567.283447
4.486683	0.2041	0.000000
4.490083	0.204	0.000000
4.493485	0.2041	0.000000
4.496887	0.2041	0.000000
4.500287	0.204	0.000000
4.503688	0.2041	0.000000
4.507088	0.204	0.000000
4.510490	0.2041	0.000000
4.513892	0.2041	1271.380249
4.517292	0.204	1507.010986
4.520693	0.2041	0.000000
4.524093	0.204	0.000031
4.527495	0.2041	0.000000
4.530897	0.2041	0.000000
4.534297	0.204	0.000000
4.537698	0.2041	0.000000
4.541100	0.2041	0.000000
4.544500	0.204	0.000000
4.547902	0.2041	0.000000
4.551302	0.204	0.000000
4.554703	0.2041	0.000000
4.558105	0.2041	0.000000
4.561505	0.204	0.000000
4.564907	0.2041	0.000000
4.568307	0.204	2232.468506
4.571708	0.2041	698.290771
4.575110	0.2041	0.000000
4.578510	0.204	0.000000
4.581912	0.2041	0.000000
4.585312	0.204	126.561279
4.588713	0.2041	0.000000
4.592115	0.2041	1818.186401
4.595515	0.204	0.000000
4.598917	0.2041	0.000000
4.602317	0.204	0.000000
4.605718	0.2041	0.000000
4.609120	0.2041	0.000000
4.612520	0.204	0.000000
4.615922	0.2041	0.000000
4.619323	0.2041	0.000000
4.622723	0.204	0.000000
4.626125	0.2041	0.000000
4.629525	0.204	0.000000
4.632927	0.2041	0.070540
4.636328	0.2041	0.000000
4.639728	0.204	0.000000
4.643130	0.2041	814.938049
4.646530	0.204	929.067322
4.649932	0.2041	0.000000
4.653333	0.2041	0.000000
4.656733	0.204	1054.980103
4.660135	0.2041	1032.596313
4.663535	0.204	12.895544
4.666937	0.2041	0.000000
4.670338	0.2041	120.248047
4.673738	0.204	0.000000
4.677140	0.2041	41.868904
4.680542	0.2041	0.000000
4.683942	0.204	4.867299
4.687343	0.2041	0.171668
4.690743	0.204	0.000000
4.694145	0.2041	0.000000
4.697547	0.2041	0.000000
4.700947	0.204	0.000000
4.704348	0.2041	0.412461
4.707748	0.204	0.000000
4.711150	0.2041	0.000000
4.714552	0.2041	0.000000
4.717952	0.204	363.808258
4.721353	0.2041	371.388275
4.724753	0.204	0.000000
4.728155	0.2041	166.703018
4.731557	0.2041	259.884399
4.734957	0.204	0.000000
4.738358	0.2041	6.324249
4.741758	0.204	17.456646
4.745160	0.2041	0.000000
4.748562	0.2041	0.000000
4.751962	0.204	0.000000
4.755363	0.2041	0.000000
4.758765	0.2041	0.000000
4.762165	0.204	0.000000
4.765567	0.2041	0.000000
4.768967	0.204	0.000000
4.772368	0.2041	0.000000
4.775770	0.2041	0.000000
4.779170	0.204	0.000000
4.782572	0.2041	0.000000
4.785972	0.204	0.000000
4.789373	0.2041	0.000000
4.792775	0.2041	0.210560
4.796175	0.204	0.000000
4.799577	0.2041	0.000000
4.802977	0.204	2428.307373
4.806378	0.2041	0.000000
4.809780	0.2041	1.834452
4.813180	0.204	0.000000
4.816582	0.2041	0.000000
4.819983	0.2041	0.000000
4.823383	0.204	514.671143
4.826785	0.2041	510.000977
4.830185	0.204	0.000000
4.833587	0.2041	0.000000
4.836988	0.2041	54.688618
4.840388	0.204	0.000000
4.843790	0.2041	19.995333
4.847190	0.204	0.000000
4.850592	0.2041	2.441675
4.853993	0.2041	0.000000
4.857393	0.204	65.773201
4.860795	0.2041	75.781387
4.864195	0.204	0.065110
4.867597	0.2041	0.000000
4.870998	0.2041	0.000000
4.874398	0.204	0.000000
4.877800	0.2041	1319.208496
4.881202	0.2041	1658.971802
4.884602	0.204	0.000000
4.888003	0.2041	268.331940
4.891403	0.204	0.000000
4.894805	0.2041	727.550354
4.898207	0.2041	0.000000
4.901607	0.204	0.000000
4.905008	0.2041	71.660347
4.908408	0.204	0.199959
4.911810	0.2041	26.400309
4.915212	0.2041	0.000000
4.918612	0.204	0.000000
4.922013	0.2041	0.000000
4.925413	0.204	0.000000
4.928815	0.2041	0.000000
4.932217	0.2041	0.000000
4.935617	0.204	0.000000
4.939018	0.2041	0.000000
4.942418	0.204	0.000000
4.945820	0.2041	1530.366821
4.949222	0.2041	1744.780029
4.952622	0.204	630.222107
4.956023	0.2041	0.000000
4.959425	0.2041	0.000000
4.962825	0.204	4209.071777
4.966227	0.2041	0.000000
4.969627	0.204	0.000000
4.973028	0.2041	426.378632
4.976430	0.2041	0.000000
4.979830	0.204	144.536697
4.983232	0.2041	0.219700
4.986632	0.204	15.964828
4.990033	0.2041	0.000000
4.993435	0.2041	4929.519531
4.996835	0.204	0.000000
5.000237	0.2041	0.000000
5.003637	0.204	0.000000
5.007038	0.2041	0.000000
5.010440	0.2041	0.000000
5.013840	0.204	3211.910889
5.017242	0.2041	7340.651855
5.020643	0.2041	6552.239258
5.024043	0.204	0.000000
5.027445	0.2041	0.000000
5.030845	0.204	0.000000
5.034247	0.2041	2582.006836
5.037648	0.2041	3618.627441
5.041048	0.204	702.704468
5.044450	0.2041	0.000000
5.047850	0.204	0.000000
5.051252	0.2041	1357.313599
5.054653	0.2041	0.000000
5.058053	0.204	0.000000
5.061455	0.2041	236.298920
5.064855	0.204	0.000000
5.068257	0.2041	68.033348
5.071658	0.2041	0.000000
5.075058	0.204	0.000000
5.078460	0.2041	0.000000
5.081860	0.204	155.779419
5.085262	0.2041	178.355667
5.088663	0.2041	0.000000
5.092063	0.204	0.000000
5.095465	0.2041	18.662010
5.098867	0.2041	0.000000
5.102267	0.204	191.040237
5.105668	0.2041	207.160446
5.109068	0.204	0.000000
5.112470	0.2041	0.095486
5.115872	0.2041	1007.761597
5.119272	0.204	0.000000
5.122673	0.2041	0.000000
5.126073	0.204	0.000000
5.129475	0.2041	44.390724
5.132877	0.2041	0.000000
5.136277	0.204	0.000000
5.139678	0.2041	0.164697
5.143078	0.204	0.000000
5.146480	0.2041	4905.284180
5.149882	0.2041	5222.167480
5.153282	0.204	0.000000
5.156683	0.2041	0.000000
5.160085	0.2041	3396.978027
5.163485	0.204	3026.968262
5.166887	0.2041	0.000000
5.170287	0.204	1401.992310
5.173688	0.2041	2557.270020
5.177090	0.2041	4188.387207
5.180490	0.204	0.000000
5.183892	0.2041	0.000000
5.187292	0.204	7559.165527
5.190693	0.2041	0.000000
5.194095	0.2041	0.000000
5.197495	0.204	0.000000
5.200897	0.2041	0.000000
5.204297	0.204	0.000000
5.207698	0.2041	0.000000
5.211100	0.2041	0.000000
5.214500	0.204	0.000000
5.217902	0.2041	4778.125488
5.221302	0.204	5146.453613
5.224703	0.2041	0.000000
5.228105	0.2041	729.005554
5.231505	0.204	0.000000
5.234907	0.2041	0.000000
5.238308	0.2041	204.754318
5.241708	0.204	0.000000
5.245110	0.2041	0.000000
5.248510	0.204	0.000000
5.251912	0.2041	4495.667969
5.255313	0.2041	0.000000
5.258713	0.204	0.000000
5.262115	0.2041	1661.097778
5.265515	0.204	730.449158
5.268917	0.2041	0.000000
5.272318	0.2041	4183.887695
5.275718	0.204	7413.486816
5.279120	0.2041	7205.309082
5.282520	0.204	0.000000
5.285922	0.2041	0.000000
5.289323	0.2041	1788.878662
5.292723	0.204	792.963501
5.296125	0.2041	1144.804932
5.299527	0.2041	0.000000
5.302927	0.204	0.000000
5.306328	0.2041	0.000000
5.309728	0.204	159.834930
5.313130	0.2041	0.000000
5.316532	0.2041	0.000000
5.319932	0.204	0.000000
5.323333	0.2041	0.000000
5.326733	0.204	0.266775
5.330135	0.2041	0.000000
5.333537	0.2041	0.000000
5.336937	0.204	0.000000
5.340338	0.2041	0.325373
5.343738	0.204	1468.839966
5.347140	0.2041	1649.410278
5.350542	0.2041	0.000000
5.353942	0.204	0.000000
5.357343	0.2041	0.000000
5.360743	0.204	1.944743
5.364145	0.2041	64.534172
5.367547	0.2041	0.000000
5.370947	0.204	9.114363
5.374348	0.2041	0.000000
5.377750	0.2041	0.000000
5.381150	0.204	0.000000
5.384552	0.2041	0.000000
5.387952	0.204	0.000000
5.391353	0.2041	0.000000
5.394755	0.2041	0.035777
5.398155	0.204	0.000000
5.401557	0.2041	0.000000
5.404957	0.204	0.000000
5.408358	0.2041	0.000000
5.411760	0.2041	0.000000
5.415160	0.204	0.000000
5.418562	0.2041	0.000000
5.421962	0.204	0.000000
5.425363	0.2041	0.000000
5.428765	0.2041	0.000061
5.432165	0.204	0.000000
5.435567	0.2041	0.000000
5.438968	0.2041	0.000000
5.442368	0.204	0.000000
5.445770	0.2041	0.000002
5.449170	0.204	0.000000
5.452572	0.2041	0.000000
5.455973	0.2041	0.000000
5.459373	0.204	0.000000
5.462775	0.2041	1123.834595
5.466175	0.204	1408.699219
5.469577	0.2041	0.000000
5.472978	0.2041	0.000000
5.476378	0.204	135.962265
5.479780	0.2041	0.000000
5.483180	0.204	819.475037
5.486582	0.2041	1887.235474
5.489983	0.2041	0.000000
5.493383	0.204	0.000000
5.496785	0.2041	0.000000
5.500185	0.204	0.000000
5.503587	0.2041	0.000000
5.506988	0.2041	0.000000
5.510388	0.204	0.000000
5.513790	0.2041	0.000000
5.517192	0.2041	0.000000
5.520592	0.204	0.000000
5.523993	0.2041	0.000000
5.527393	0.204	0.000000
5.530795	0.2041	0.000000
5.534197	0.2041	0.000000
5.537597	0.204	1767.836060
5.540998	0.2041	2019.269165
5.544398	0.204	0.000000
5.547800	0.2041	0.000000
5.551202	0.2041	213.865219
5.554602	0.204	0.000000
5.558003	0.2041	78.690216
5.561403	0.204	0.000000
5.564805	0.2041	0.000000
5.568207	0.2041	0.000000
5.571607	0.204	2429.377441
5.575008	0.2041	2773.902588
5.578410	0.2041	0.000000
5.581810	0.204	0.000000
5.585212	0.2041	293.976349
5.588612	0.204	0.000000
5.592013	0.2041	167.912216
5.595415	0.2041	0.000000
5.598815	0.204	0.000000
5.602217	0.2041	0.000000
5.605617	0.204	0.000000
5.609018	0.2041	0.000000
5.612420	0.2041	0.000000
5.615820	0.204	360.966827
5.619222	0.2041	0.000000
5.622622	0.204	0.000000
5.626023	0.2041	0.000000
5.629425	0.2041	81.494957
5.632825	0.204	0.000000
5.636227	0.2041	0.000000
5.639627	0.204	0.000000
5.643028	0.2041	0.000000
5.646430	0.2041	0.000000
5.649830	0.204	0.000000
5.653232	0.2041	0.475571
5.656633	0.2041	0.000000
5.660033	0.204	0.000000
5.663435	0.2041	797.620361
5.666835	0.204	920.367493
5.670237	0.2041	0.000000
5.673638	0.2041	0.000000
5.677038	0.204	0.000000
5.680440	0.2041	0.000003
5.683840	0.204	0.000000
5.687242	0.2041	0.000000
5.690643	0.2041	0.000000
5.694043	0.204	0.000000
5.697445	0.2041	1233.739746
5.700845	0.204	1260.518311
5.704247	0.2041	0.000000
5.707648	0.2041	0.000000
5.711048	0.204	137.688080
5.714450	0.2041	0.000000
5.717852	0.2041	0.000000
5.721252	0.204	0.000000
5.724653	0.2041	0.000000
5.728053	0.204	0.000000
5.731455	0.2041	0.000000
5.734857	0.2041	0.000000
5.738257	0.204	227.153687
5.741658	0.2041	0.000000
5.745058	0.204	0.000000
5.748460	0.2041	24.090113
5.751862	0.2041	0.000000
5.755262	0.204	0.000000
5.758663	0.2041	0.000000
5.762063	0.204	1.090367
5.765465	0.2041	0.000000
5.768867	0.2041	0.000000
5.772267	0.204	0.179460
5.775668	0.2041	0.000000
5.779068	0.204	0.000000
5.782470	0.2041	0.000000
5.785872	0.2041	0.000000
5.789272	0.204	0.000000
5.792673	0.2041	0.000000
5.796075	0.2041	0.000000
5.799475	0.204	0.000000
5.802877	0.2041	0.000000
5.806277	0.204	461.693481
5.809678	0.2041	1266.032959
5.813080	0.2041	763.744873
5.816480	0.204	1257.174683
5.819882	0.2041	1891.672974
5.823282	0.204	0.000000
5.826683	0.2041	0.000000
5.830085	0.2041	199.652191
5.833485	0.204	0.000000
5.836887	0.2041	0.000000
5.840287	0.204	0.000000
5.843688	0.2041	7.510816
5.847090	0.2041	0.641302
5.850490	0.204	0.000000
5.853892	0.2041	0.000000
5.857293	0.2041	0.000000
5.860693	0.204	0.000000
5.864095	0.2041	0.000000
5.867495	0.204	0.000000
5.870897	0.2041	0.037779
5.874298	0.2041	0.000000
5.877698	0.204	0.000000
5.881100	0.2041	0.000000
5.884500	0.204	0.704715
5.887902	0.2041	0.000000
5.891303	0.2041	0.000000
5.894703	0.204	0.000000
5.898105	0.2041	0.000000
5.901505	0.204	0.000000
5.904907	0.2041	0.000000
5.908308	0.2041	0.000000
5.911708	0.204	0.000000
5.915110	0.2041	0.000000
5.918510	0.204	0.000000
5.921912	0.2041	0.000000
5.925313	0.2041	0.000000
5.928713	0.204	0.000000
5.932115	0.2041	0.000000
5.935517	0.2041	0.000000
5.938917	0.204	0.000000
5.942318	0.2041	0.000000
5.945718	0.204	0.000000
5.949120	0.2041	0.000000
5.952522	0.2041	0.000000
5.955922	0.204	0.000000
5.959323	0.2041	0.000000
5.962723	0.204	0.000000
5.966125	0.2041	0.000000
5.969527	0.2041	0.000000
5.972927	0.204	0.628309
5.976328	0.2041	0.188453
5.979728	0.204	0.000000
5.983130	0.2041	0.000000
5.986532	0.2041	0.000000
5.989932	0.204	0.000000
5.993333	0.2041	4734.360352
5.996735	0.2041	4659.691406
6.000135	0.204	0.000000
6.003537	0.2041	0.000000
6.006937	0.204	494.255920
6.010338	0.2041	0.000000
6.013740	0.2041	776.375793
6.017140	0.204	2605.163818
6.020542	0.2041	2122.293945
6.023942	0.204	0.000000
6.027343	0.2041	0.000000
6.030745	0.2041	292.686218
6.034145	0.204	0.000000
6.037547	0.2041	76.782928
6.040947	0.204	0.000000
6.044348	0.2041	10.573383
6.047750	0.2041	605.050598
6.051150	0.204	811.405334
6.054552	0.2041	0.000000
6.057953	0.2041	0.000000
6.061353	0.204	0.000000
6.064755	0.2041	0.000000
6.068155	0.204	0.000000
6.071557	0.2041	0.000000
6.074958	0.2041	0.000000
6.078358	0.204	0.008922
6.081760	0.2041	0.000000
6.085160	0.204	0.000000
6.088562	0.2041	0.000000
6.091963	0.2041	0.179516
6.095363	0.204	0.000000
6.098765	0.2041	0.000000
6.102165	0.204	0.025260
6.105567	0.2041	0.000000
6.108968	0.2041	0.008019
6.112368	0.204	89.196327
6.115770	0.2041	101.118149
6.119170	0.204	0.000000
6.122572	0.2041	0.000000
6.125973	0.2041	0.000000
6.129373	0.204	0.000000
6.132775	0.2041	3.944177
6.136177	0.2041	0.000000
6.139577	0.204	0.485780
6.142978	0.2041	0.000000
6.146378	0.204	989.518982
6.149780	0.2041	1128.658569
6.153182	0.2041	1.222293
6.156582	0.204	0.000000
6.159983	0.2041	119.731766
6.163383	0.204	0.000000
6.166785	0.2041	0.000000
6.170187	0.2041	0.000000
6.173587	0.204	0.000000
6.176988	0.2041	0.000000
6.180388	0.204	0.000000
6.183790	0.2041	0.000000
6.187192	0.2041	0.000000
6.190592	0.204	0.000000
6.193993	0.2041	0.849671
6.197395	0.2041	0.000000
6.200795	0.204	0.000000
6.204197	0.2041	0.411932
6.207597	0.204	0.000000
6.210998	0.2041	0.000000
6.214400	0.2041	0.000000
6.217800	0.204	0.000000
6.221202	0.2041	0.000000
6.224602	0.204	0.000000
6.228003	0.2041	0.000000
6.231405	0.2041	0.000000
6.234805	0.204	0.000000
6.238207	0.2041	0.000000
6.241607	0.204	0.000000
6.245008	0.2041	0.000000
6.248410	0.2041	0.000000
6.251810	0.204	0.000000
6.255212	0.2041	0.000000
6.258612	0.204	0.000000
6.262013	0.2041	0.000000
6.265415	0.2041	0.000000
6.268815	0.204	0.000000
6.272217	0.2041	0.000000
6.275618	0.2041	0.000000
6.279018	0.204	0.000000
6.282420	0.2041	0.000000
6.285820	0.204	0.000000
6.289222	0.2041	0.000000
6.292623	0.2041	0.000000
6.296023	0.204	0.000000
6.299425	0.2041	0.012041
6.302825	0.204	0.000000
6.306227	0.2041	0.000000
6.309628	0.2041	0.000000
6.313028	0.204	0.000000
6.316430	0.2041	0.000000
6.319830	0.204	0.000000
6.323232	0.2041	0.000000
6.326633	0.2041	0.000000
6.330033	0.204	0.000000
6.333435	0.2041	0.000000
6.336837	0.2041	0.000000
6.340237	0.204	0.000000
6.343638	0.2041	0.433518
6.347038	0.204	0.167552
6.350440	0.2041	0.000000
6.353842	0.2041	1532.133423
6.357242	0.204	0.000000
6.360643	0.2041	0.037434
6.364043	0.204	0.000000
6.367445	0.2041	0.000000
6.370847	0.2041	0.000000
6.374247	0.204	0.000000
6.377648	0.2041	0.000000
6.381048	0.204	0.753975
6.384450	0.2041	0.000000
6.387852	0.2041	1.418934
6.391252	0.204	0.000000
6.394653	0.2041	0.000000
6.398055	0.2041	0.000000
6.401455	0.204	2.478003
6.404857	0.2041	0.350305
6.408257	0.204	0.000000
6.411658	0.2041	0.000000
6.415060	0.2041	0.000000
6.418460	0.204	0.000000
6.421862	0.2041	136.389664
6.425262	0.204	0.000000
6.428663	0.2041	0.000000
6.432065	0.2041	7.659600
6.435465	0.204	0.000000
6.438867	0.2041	0.000000
6.442267	0.204	0.000000
6.445668	0.2041	0.000000
6.449070	0.2041	0.000000
6.452470	0.204	0.059911
6.455872	0.2041	0.045946
6.459272	0.204	0.000000
6.462673	0.2041	0.000000
6.466075	0.2041	0.000000
6.469475	0.204	0.006832
6.472877	0.2041	0.000000
6.476278	0.2041	0.000000
6.479678	0.204	0.000000
6.483080	0.2041	0.000000
6.486480	0.204	0.000000
6.489882	0.2041	0.000000
6.493283	0.2041	0.000000
6.496683	0.204	0.000000
6.500085	0.2041	0.000000
6.503485	0.204	0.000000
6.506887	0.2041	0.000000
6.510288	0.2041	0.000000
6.513688	0.204	0.000000
6.517090	0.2041	0.000000
6.520490	0.204	0.000000
6.523892	0.2041	0.000000
6.527293	0.2041	0.000000
6.530693	0.204	0.000000
6.534095	0.2041	0.000000
6.537497	0.2041	0.000000
6.540897	0.204	1824.640625
6.544298	0.2041	2776.227539
6.547698	0.204	705.651428
6.551100	0.2041	0.000000
6.554502	0.2041	214.865723
6.557902	0.204	0.000000
6.561303	0.2041	79.236298
6.564703	0.204	0.000000
6.568105	0.2041	0.000000
6.571507	0.2041	0.000000
6.574907	0.204	0.000000
6.578308	0.2041	0.000000
6.581708	0.204	0.000000
6.585110	0.2041	69.162086
6.588512	0.2041	0.000000
6.591912	0.204	18.862146
6.595313	0.2041	0.000000
6.598713	0.204	3972.633301
6.602115	0.2041	2016.381714
6.605517	0.2041	0.000000
6.608917	0.204	0.000000
6.612318	0.2041	0.000000
6.615720	0.2041	0.000000
6.619120	0.204	0.000000
6.622522	0.2041	0.000000
6.625922	0.204	1642.912720
6.629323	0.2041	0.000000
6.632725	0.2041	0.000000
6.636125	0.204	2203.731689
6.639527	0.2041	3891.644287
6.642927	0.204	0.000000
6.646328	0.2041	0.000000
6.649730	0.2041	0.000000
6.653130	0.204	0.000000
6.656532	0.2041	0.000000
6.659932	0.204	0.000000
6.663333	0.2041	0.000000
6.666735	0.2041	0.000000
6.670135	0.204	0.000000
6.673537	0.2041	0.000000
6.676938	0.2041	0.000000
6.680338	0.204	0.000000
6.683740	0.2041	0.000000
6.687140	0.204	0.075374
6.690542	0.2041	0.000000
6.693943	0.2041	0.000000
6.697343	0.204	0.000000
6.700745	0.2041	0.000000
6.704145	0.204	5008.465820
6.707547	0.2041	0.000000
6.710948	0.2041	0.000000
6.714348	0.204	403.152161
6.717750	0.2041	343.432892
6.721150	0.204	0.000000
6.724552	0.2041	0.000000
6.727953	0.2041	19.569855
6.731353	0.204	0.000000
6.734755	0.2041	0.000000
6.738155	0.204	0.000000
6.741557	0.2041	0.000000
6.744958	0.2041	0.000000
6.748358	0.204	0.000000
6.751760	0.2041	0.000000
6.755162	0.2041	193.020660
6.758562	0.204	0.000000
6.761963	0.2041	54.088791
6.765363	0.204	0.000000
6.768765	0.2041	0.000000
6.772167	0.2041	0.000000
6.775567	0.204	0.005158
6.778968	0.2041	0.000000
6.782368	0.204	0.000000
6.785770	0.2041	46.257137
6.789172	0.2041	53.503540
6.792572	0.204	0.000000
6.795973	0.2041	0.216089
6.799373	0.204	0.000000
6.802775	0.2041	0.057715
6.806177	0.2041	0.000000
6.809577	0.204	0.000000
6.812978	0.2041	0.295492
6.816380	0.2041	0.000000
6.819780	0.204	0.000000
6.823182	0.2041	0.000000
6.826582	0.204	0.000000
6.829983	0.2041	0.003584
6.833385	0.2041	0.000000
6.836785	0.204	0.000000
6.840187	0.2041	0.000000
6.843587	0.204	66.665962
6.846988	0.2041	0.000000
6.850390	0.2041	0.000000
6.853790	0.204	0.000000
6.857192	0.2041	8.078441
6.860592	0.204	0.000000
6.863993	0.2041	2.970902
6.867395	0.2041	0.000000
6.870795	0.204	0.000000
6.874197	0.2041	0.000000
6.877597	0.204	0.000000
6.880998	0.2041	0.000000
6.884400	0.2041	0.782183
6.887800	0.204	0.000000
6.891202	0.2041	0.000000
6.894603	0.2041	1361.031982
6.898003	0.204	330.486847
6.901405	0.2041	0.000000
6.904805	0.204	0.000000
6.908207	0.2041	28.772713
6.911608	0.2041	40.853706
6.915008	0.204	0.000000
6.918410	0.2041	7.036571
6.921810	0.204	0.000000
6.925212	0.2041	776.068665
6.928613	0.2041	922.354309
6.932013	0.204	0.215413
6.935415	0.2041	0.000000
6.938815	0.204	99.579124
6.942217	0.2041	0.000000
6.945618	0.2041	0.000000
6.949018	0.204	0.000000
6.952420	0.2041	0.000000
6.955820	0.204	0.000000
6.959222	0.2041	0.000000
6.962623	0.2041	0.000000
6.966023	0.204	0.000000
6.969425	0.2041	0.000000
6.972827	0.2041	117.407715
6.976227	0.204	176.289841
6.979628	0.2041	0.000000
6.983028	0.204	0.000000
6.986430	0.2041	14.226735
6.989832	0.2041	0.000000
6.993232	0.204	0.000000
6.996633	0.2041	1509.834839
