URL	chrom://isq7ci2006004/ChromeleonLocal/Instrument Data/Aspuru-Guzik/Stanley/2024_12_16_005c-H.seq/306.smp/MSDevice.xraw
Channel	TIC

Injection Information:
Data Vault	ChromeleonLocal
Sequence	2024_12_16_005c-H
Name	005c-H3F_conc
Number	7
Position	5
Comment	
Processing Method	Basic Quantitative
Instrument Method	2024_12_16_005c-H - Copy
Type	Unknown
Status	Finished
Inject Time	12/16/2024 3:47:11 PM -05:00
Volume (µl)	3.0000
Dilution Factor	1.0000
Weight	1.0000

Raw Data Information:
Data Points	268
Mass Min. (m/z)	150.000000
Mass Max. (m/z)	399.968075
Retention Time (min)	3.289525
Mass Resolution	0.500000
Tolerance Unit	Amu
Scan Number	233
Scan Type	+ c EI Full ms [150.00-400.00]
Is Centroid Scan	True
Base Peak Mass	207.013901
Base Peak Intensity	695805.937500
Total Ion Count	7342454.172605

Raw Data:
Mass (m/z)	Value (counts)
150.2	6987.919434
151.0	76235.585938
152.0	33902.984375
153.0	78789.390625
154.2	17397.587891
155.1	9328.244141
156.0	13787.627930
157.0	10560.237305
157.8	8061.450684
159.0	678456.687500
160.1	238815.328125
161.0	38195.914063
161.9	7254.425781
163.0	30015.960938
164.1	27507.162109
165.0	82360.039063
166.0	14003.606445
167.2	13481.932617
168.5	8218.335938
169.0	4521.582520
169.6	1382.706421
170.7	15942.490234
171.2	31935.376953
172.0	337219.625000
173.0	569967.875000
174.0	60727.402344
174.7	1486.630859
175.3	9064.024414
176.1	4178.631348
177.0	60342.031250
178.0	19245.845703
179.0	39141.105469
180.1	9145.046875
180.7	2232.552246
181.3	4718.826660
182.0	12371.726563
183.2	16644.316406
184.1	5325.299805
185.1	62633.222656
186.1	47406.949219
187.0	177313.828125
187.9	30395.810547
188.6	13042.743164
189.2	10179.646484
190.2	3276.301270
191.0	84689.757813
191.9	26338.683594
193.0	78171.671875
193.9	22671.179688
195.0	20813.673828
196.1	7718.082520
197.0	25988.218750
198.1	7621.136719
199.0	36815.875000
199.9	17521.613281
201.1	16220.270508
202.0	4354.160645
202.7	3428.707520
203.3	2809.925049
204.5	753.573975
205.1	17487.482422
206.2	13388.318359
207.0	695805.937500
208.0	140343.937500
209.0	111505.328125
210.1	16630.009766
211.3	6899.368652
212.9	4541.153320
213.6	5977.560547
215.2	8719.010742
215.9	8.561848
216.9	1245.192749
217.4	1592.377808
218.3	552.111328
218.8	4576.001953
219.4	525.102478
220.0	4597.860840
221.1	114703.554688
222.1	12154.010742
222.9	14253.601563
223.5	4726.315430
224.5	4542.686035
225.2	13808.574219
227.2	3354.862549
228.0	5471.714844
228.9	6040.529297
230.1	195479.312500
231.2	17685.033203
233.2	3581.268799
234.2	1426.581177
235.1	10921.431641
236.9	15276.583008
238.1	2738.420166
239.0	6294.788574
239.9	36.481941
241.3	118.524536
242.1	4961.868164
243.1	29464.375000
244.2	1736.315308
245.2	17390.804688
246.0	11616.735352
247.1	3805.289063
248.0	5948.694336
248.9	33907.152344
249.5	3091.034180
250.4	10439.366211
251.1	13694.970703
252.3	14226.039063
253.2	30463.775391
254.1	7908.614258
255.3	6535.716797
256.3	1728.770386
256.9	3064.934814
258.2	4742.784180
259.0	6651.258789
259.7	3102.624512
260.5	1952.722168
261.2	9965.505859
261.7	4778.692871
262.3	12368.353516
263.1	15983.450195
264.1	83008.960938
265.1	40828.593750
265.9	8680.781250
267.0	95654.703125
268.0	23995.781250
268.6	1620.278320
269.2	10074.261719
269.9	6501.858887
270.7	1546.651855
271.3	172.270142
271.9	198.612808
273.1	998.549561
274.1	39.178425
274.8	9.067060
275.7	2965.520264
277.1	1904.251709
278.1	3308.376709
279.0	6884.976074
281.0	408883.687500
282.0	77883.304688
282.6	9839.988281
283.1	83619.554688
284.1	20806.757813
285.0	4148.921387
285.7	263.410645
286.4	1549.442139
287.4	0.817693
288.3	95.371071
289.0	73.309433
289.8	0.522557
290.8	50.604626
292.1	0.083573
292.8	3859.916992
293.9	5663.289063
295.0	14636.953125
296.1	9099.143555
297.3	6656.900879
298.1	1282.662964
299.0	1206.909668
300.6	15.530583
301.3	1.808854
302.1	1553.597046
303.5	0.839952
304.6	1821.885620
305.4	2099.443115
306.4	3273.095215
307.1	830.124023
308.5	945.721436
309.1	2317.685303
310.3	2697.559082
311.0	5198.325195
312.0	721.588196
312.9	4993.621094
315.0	28107.964844
315.6	3157.565430
316.4	3274.644775
316.9	1681.255005
317.5	176.417282
318.0	306.518646
318.6	6.381909
320.0	0.003118
321.4	5.206699
322.1	0.026304
322.9	2714.124268
323.9	264.740723
324.9	47833.058594
325.5	12057.297852
326.9	77200.117188
327.9	19357.615234
328.8	13961.084961
329.8	15113.276367
331.0	14347.096680
332.0	10468.755859
333.0	6091.568848
334.1	433016.843750
335.1	103065.531250
336.2	10001.747070
337.1	4231.227539
338.0	0.066481
339.0	12562.513672
340.2	1700.274536
341.0	86223.101563
341.9	34349.722656
343.0	29548.521484
343.9	7569.322266
344.8	1396.835449
345.7	3077.731689
346.3	1304.709229
347.0	2123.017822
347.7	0.550862
348.5	2874.291016
349.3	0.854858
350.6	93.871948
351.2	5.425866
352.8	1201.176025
353.6	3779.869629
354.1	1128.593872
355.0	130952.023438
356.1	37456.890625
357.0	42192.527344
358.0	7697.775879
359.2	6309.395508
360.2	24.591469
360.8	923.961060
361.4	0.149124
362.4	0.002461
363.0	10.261587
364.9	2211.519043
365.5	59.217438
366.1	1.937197
367.1	128.852066
368.1	1.016200
369.1	20758.109375
369.8	2831.509277
370.9	10343.133789
371.6	1687.578491
373.0	8093.231445
373.7	5004.465332
374.6	2139.020752
375.3	1633.917847
376.7	278.320465
377.4	2.128465
378.0	0.148392
378.6	0.114873
379.1	22.858959
380.0	0.002011
381.1	286.010864
381.9	2098.227051
382.6	2724.611084
383.2	5436.706055
383.8	1242.287598
384.6	7202.648438
385.2	7203.261230
386.1	1333.223999
386.9	6035.223633
388.4	5395.946289
389.3	2380.642090
390.3	1798.068970
391.2	2539.130615
393.4	0.799032
394.3	0.319542
394.9	4.416501
396.1	1226.208984
396.9	4428.085449
398.1	567.674133
399.1	16937.279297
399.8	7325.181641
