1520.00000	39.14641
1520.50000	39.14641
1521.00000	39.14641
1521.50000	39.14641
1522.00000	39.14641
1522.50000	39.14641
1523.00000	39.14641
1523.50000	39.14641
1524.00000	39.14641
1524.50000	39.14641
1525.00000	39.14641
1525.50000	39.14641
1526.00000	39.14641
1526.50000	43.16459
1527.00000	46.81159
1527.50000	50.09752
1528.00000	53.27846
1528.50000	56.53612
1529.00000	59.65509
1529.50000	62.09053
1530.00000	63.18860
1530.50000	62.53197
1531.00000	60.15405
1531.50000	56.55618
1532.00000	52.55714
1532.50000	48.89976
1533.00000	46.00703
1533.50000	43.92601
1534.00000	42.40489
1534.50000	41.02742
1535.00000	39.51130
1535.50000	37.72435
1536.00000	35.72438
1536.50000	33.70815
1537.00000	31.92459
1537.50000	30.54118
1538.00000	29.67106
1538.50000	29.32182
1539.00000	29.50964
1539.50000	30.25775
1540.00000	31.64030
1540.50000	33.57594
1541.00000	35.74728
1541.50000	37.62736
1542.00000	38.70390
1542.50000	38.76842
1543.00000	38.07245
1543.50000	37.28887
1544.00000	37.14961
1544.50000	38.20503
1545.00000	40.54741
1545.50000	43.90170
1546.00000	47.72651
1546.50000	51.40852
1547.00000	54.41363
1547.50000	56.42250
1548.00000	57.48026
1548.50000	57.98985
1549.00000	58.56580
1549.50000	59.66536
1550.00000	61.42213
1550.50000	63.54829
1551.00000	65.57539
1551.50000	67.01780
1552.00000	67.70315
1552.50000	67.59370
1553.00000	66.76254
1553.50000	65.29755
1554.00000	63.39115
1554.50000	61.36688
1555.00000	59.68946
1555.50000	58.82101
1556.00000	58.94271
1556.50000	59.91868
1557.00000	61.26232
1557.50000	62.34681
1558.00000	62.60239
1558.50000	61.71384
1559.00000	59.73566
1559.50000	57.04882
1560.00000	54.24430
1560.50000	51.76881
1561.00000	49.75618
1561.50000	47.92722
1562.00000	45.91571
1562.50000	43.50913
1563.00000	40.90736
1563.50000	38.57934
1564.00000	37.08907
1564.50000	36.66247
1565.00000	37.13993
1565.50000	38.01972
1566.00000	38.75987
1566.50000	39.00233
1567.00000	38.66431
1567.50000	37.89727
1568.00000	36.98111
1568.50000	36.18692
1569.00000	35.60942
1569.50000	35.19233
1570.00000	34.87726
1570.50000	34.69920
1571.00000	34.89304
1571.50000	35.80318
1572.00000	37.58733
1572.50000	40.08062
1573.00000	42.83722
1573.50000	45.37806
1574.00000	47.42176
1574.50000	49.07642
1575.00000	50.63363
1575.50000	52.28660
1576.00000	54.02149
1576.50000	55.66016
1577.00000	57.06112
1577.50000	58.27325
1578.00000	59.48835
1578.50000	60.94416
1579.00000	62.65565
1579.50000	64.49178
1580.00000	66.23810
1580.50000	67.94583
1581.00000	69.82584
1581.50000	72.36705
1582.00000	76.08994
1582.50000	81.40476
1583.00000	88.25336
1583.50000	96.14599
1584.00000	104.15295
1584.50000	111.35942
1585.00000	117.19669
1585.50000	121.73817
1586.00000	125.84774
1586.50000	130.77780
1587.00000	137.72424
1587.50000	147.44728
1588.00000	160.31665
1588.50000	176.45775
1589.00000	195.95563
1589.50000	218.86966
1590.00000	245.05994
1590.50000	273.95160
1591.00000	304.60361
1591.50000	335.86972
1592.00000	366.78372
1592.50000	396.79358
1593.00000	425.39331
1593.50000	451.92456
1594.00000	475.23590
1594.50000	493.84323
1595.00000	506.22379
1595.50000	511.39120
1596.00000	509.07623
1596.50000	499.71500
1597.00000	484.15222
1597.50000	463.36844
1598.00000	438.41702
1598.50000	410.20123
1599.00000	379.65552
1599.50000	347.62903
1600.00000	315.10126
1600.50000	283.13339
1601.00000	252.89401
1601.50000	225.50198
1602.00000	201.74551
1602.50000	181.85840
1603.00000	165.55493
1603.50000	152.18036
1604.00000	141.20160
1604.50000	132.43289
1605.00000	125.89579
1605.50000	121.66333
1606.00000	119.53309
1606.50000	119.03548
1607.00000	119.54861
1607.50000	120.52919
1608.00000	121.56063
1608.50000	122.35783
1609.00000	122.70602
1609.50000	122.44871
1610.00000	121.50111
1610.50000	119.90267
1611.00000	117.77940
1611.50000	115.27644
1612.00000	112.56850
1612.50000	109.83727
1613.00000	107.27090
1613.50000	105.00228
1614.00000	103.04796
1614.50000	101.28526
1615.00000	99.51909
1615.50000	97.68816
1616.00000	95.96386
1616.50000	94.70470
1617.00000	94.24269
1617.50000	94.71071
1618.00000	95.91077
1618.50000	97.40493
1619.00000	98.74842
1619.50000	99.70010
1620.00000	100.25873
1620.50000	100.65482
1621.00000	101.14877
1621.50000	101.92984
1622.00000	103.01895
1622.50000	104.39616
1623.00000	106.07269
1623.50000	108.19766
1624.00000	111.00784
1624.50000	114.65231
1625.00000	119.01367
1625.50000	123.64997
1626.00000	127.97837
1626.50000	131.42786
1627.00000	133.80002
1627.50000	135.29161
1628.00000	136.43790
1628.50000	137.72749
1629.00000	139.47231
1629.50000	141.64510
1630.00000	143.96048
1630.50000	145.98366
1631.00000	147.44249
1631.50000	148.27437
1632.00000	148.62514
1632.50000	148.68625
1633.00000	148.61111
1633.50000	148.45140
1634.00000	148.24452
1634.50000	148.10777
1635.00000	148.23595
1635.50000	148.78760
1636.00000	149.73032
1636.50000	150.74968
1637.00000	151.37158
1637.50000	151.18326
1638.00000	150.04654
1638.50000	148.12590
1639.00000	145.89502
1639.50000	143.87556
1640.00000	142.53880
1640.50000	142.14503
1641.00000	142.77882
1641.50000	144.28998
1642.00000	146.42290
1642.50000	148.85014
1643.00000	151.30443
1643.50000	153.53697
1644.00000	155.41203
1644.50000	156.80357
1645.00000	157.64857
1645.50000	157.97112
1646.00000	157.94737
1646.50000	157.81418
1647.00000	157.75453
1647.50000	157.81311
1648.00000	157.88348
1648.50000	157.76329
1649.00000	157.23654
1649.50000	156.15573
1650.00000	154.51617
1650.50000	152.51732
1651.00000	150.56006
1651.50000	149.16615
1652.00000	148.80420
1652.50000	149.53044
1653.00000	150.88109
1653.50000	152.03651
1654.00000	152.30180
1654.50000	151.32390
1655.00000	149.31133
1655.50000	146.81129
1656.00000	144.46866
1656.50000	142.61032
1657.00000	141.28316
1657.50000	140.34642
1658.00000	139.59331
1658.50000	138.82834
1659.00000	137.84827
1659.50000	136.55936
1660.00000	134.98715
1660.50000	133.31070
1661.00000	131.74805
1661.50000	130.50453
1662.00000	129.68033
1662.50000	129.22856
1663.00000	128.98936
1663.50000	128.74947
1664.00000	128.27480
1664.50000	127.27877
1665.00000	125.62767
1665.50000	123.46055
1666.00000	121.30602
1666.50000	119.90824
1667.00000	120.01894
1667.50000	122.13371
1668.00000	126.19724
1668.50000	131.62338
1669.00000	137.47009
1669.50000	142.77325
1670.00000	146.86734
1670.50000	149.59619
1671.00000	151.27048
1671.50000	152.48122
1672.00000	153.68430
1672.50000	154.89609
1673.00000	155.60849
1673.50000	155.12820
1674.00000	152.95020
1674.50000	149.00600
1675.00000	143.73766
1675.50000	137.82364
1676.00000	131.89523
1676.50000	126.22331
1677.00000	120.88276
1677.50000	115.90209
1678.00000	111.47515
1678.50000	107.89945
1679.00000	105.41378
1679.50000	104.06976
1680.00000	103.60659
1680.50000	103.69929
1681.00000	104.03377
1681.50000	104.53796
1682.00000	105.26445
1682.50000	106.25894
1683.00000	107.33164
1683.50000	108.22254
1684.00000	108.63737
1684.50000	108.40189
1685.00000	107.54450
1685.50000	106.35617
1686.00000	105.25886
1686.50000	104.58229
1687.00000	104.48244
1687.50000	104.77378
1688.00000	105.00007
1688.50000	104.52185
1689.00000	102.96545
1689.50000	100.39362
1690.00000	97.37324
1690.50000	94.64246
1691.00000	92.75739
1691.50000	91.89540
1692.00000	91.84898
1692.50000	92.25662
1693.00000	92.75114
1693.50000	93.14308
1694.00000	93.28664
1694.50000	93.12329
1695.00000	92.67544
1695.50000	92.24647
1696.00000	92.18561
1696.50000	92.75583
1697.00000	93.93527
1697.50000	95.41937
1698.00000	96.75805
1698.50000	97.50090
1699.00000	97.36060
1699.50000	96.18678
1700.00000	93.98518
1700.50000	91.02421
1701.00000	87.88781
1701.50000	85.36530
1702.00000	84.05717
1702.50000	84.08375
1703.00000	85.01974
1703.50000	86.26101
1704.00000	87.40041
1704.50000	88.53560
1705.00000	90.03820
1705.50000	92.26205
1706.00000	95.15000
1706.50000	98.33652
1707.00000	101.35388
1707.50000	103.94936
1708.00000	106.05524
1708.50000	107.65018
1709.00000	108.55907
1709.50000	108.48994
1710.00000	107.15331
1710.50000	104.47891
1711.00000	100.69067
1711.50000	96.31382
1712.00000	92.03034
1712.50000	88.52496
1713.00000	86.23179
1713.50000	85.24110
1714.00000	85.30537
1714.50000	86.12531
1715.00000	87.54310
1715.50000	89.68580
1716.00000	92.73225
1716.50000	96.69833
1717.00000	101.20398
1717.50000	105.63506
1718.00000	109.38364
1718.50000	112.13113
1719.00000	113.91596
1719.50000	114.99804
1720.00000	115.60522
1720.50000	115.81145
1721.00000	115.55325
1721.50000	114.76466
1722.00000	113.44691
1722.50000	111.76865
1723.00000	110.01788
1723.50000	108.57834
1724.00000	107.74431
1724.50000	107.62702
1725.00000	108.14296
1725.50000	109.14104
1726.00000	110.51249
1726.50000	112.23030
1727.00000	114.23856
1727.50000	116.37822
1728.00000	118.32991
1728.50000	119.86513
1729.00000	120.97166
1729.50000	121.90771
1730.00000	122.97231
1730.50000	124.29131
1731.00000	125.80375
1731.50000	127.38745
1732.00000	129.01736
1732.50000	130.76900
1733.00000	132.69492
1733.50000	134.70593
1734.00000	136.60710
1734.50000	138.27425
1735.00000	139.74959
1735.50000	141.14627
1736.00000	142.45276
1736.50000	143.46164
1737.00000	143.86743
1737.50000	143.48994
1738.00000	142.36407
1738.50000	140.72458
1739.00000	138.83052
1739.50000	136.97092
1740.00000	135.41447
1740.50000	134.45146
1741.00000	134.24461
1741.50000	134.71895
1742.00000	135.51585
1742.50000	136.22275
1743.00000	136.71362
1743.50000	137.22466
1744.00000	138.17281
1744.50000	139.82602
1745.00000	142.15540
1745.50000	144.88242
1746.00000	147.72382
1746.50000	150.56760
1747.00000	153.41261
1747.50000	156.19920
1748.00000	158.75572
1748.50000	160.83968
1749.00000	162.28265
1749.50000	163.00871
1750.00000	162.98657
1750.50000	162.15500
1751.00000	160.39565
1751.50000	157.78926
1752.00000	154.62512
1752.50000	151.43919
1753.00000	148.71236
1753.50000	146.74667
1754.00000	145.48918
1754.50000	144.74971
1755.00000	144.39085
1755.50000	144.45325
1756.00000	145.07895
1756.50000	146.36885
1757.00000	148.29181
1757.50000	150.70599
1758.00000	153.48561
1758.50000	156.59560
1759.00000	160.01547
1759.50000	163.61240
1760.00000	167.08466
1760.50000	170.00031
1761.00000	171.98459
1761.50000	172.81786
1762.00000	172.53522
1762.50000	171.26706
1763.00000	169.18602
1763.50000	166.48846
1764.00000	163.36609
1764.50000	160.01897
1765.00000	156.51869
1765.50000	152.89786
1766.00000	149.09917
1766.50000	145.21783
1767.00000	141.50481
1767.50000	138.38713
1768.00000	136.26859
1768.50000	135.40952
1769.00000	135.85631
1769.50000	137.49297
1770.00000	140.05785
1770.50000	143.20056
1771.00000	146.54552
1771.50000	149.84198
1772.00000	153.03607
1772.50000	156.29510
1773.00000	159.79137
1773.50000	163.49486
1774.00000	166.98463
1774.50000	169.58376
1775.00000	170.70769
1775.50000	170.16580
1776.00000	168.19659
1776.50000	165.29361
1777.00000	162.00899
1777.50000	158.84911
1778.00000	156.20084
1778.50000	154.32158
1779.00000	153.32411
1779.50000	153.15495
1780.00000	153.67023
1780.50000	154.69778
1781.00000	156.10559
1781.50000	157.69310
1782.00000	159.14458
1782.50000	159.99515
1783.00000	159.82265
1783.50000	158.37904
1784.00000	155.82712
1784.50000	152.58466
1785.00000	149.20006
1785.50000	146.11742
1786.00000	143.59660
1786.50000	141.65968
1787.00000	140.10889
1787.50000	138.58748
1788.00000	136.82167
1788.50000	134.84694
1789.00000	133.05675
1789.50000	132.04723
1790.00000	132.28442
1790.50000	133.83908
1791.00000	136.27377
1791.50000	138.90158
1792.00000	141.15509
1792.50000	142.89467
1793.00000	144.28586
1793.50000	145.55232
1794.00000	146.68114
1794.50000	147.37851
1795.00000	147.24576
1795.50000	146.08771
1796.00000	144.13332
1796.50000	141.87411
1797.00000	139.87236
1797.50000	138.36087
1798.00000	137.18105
1798.50000	135.84061
1799.00000	133.91855
1799.50000	131.31664
1800.00000	128.39658
1800.50000	125.63333
1801.00000	123.25255
1801.50000	121.07561
1802.00000	118.66080
1802.50000	115.68310
1803.00000	112.13421
1803.50000	108.46642
1804.00000	105.26705
1804.50000	103.03627
1805.00000	101.73430
1805.50000	100.96459
1806.00000	100.18218
1806.50000	99.18358
1807.00000	98.00716
1807.50000	96.91608
1808.00000	95.96235
1808.50000	94.98225
1809.00000	93.53611
1809.50000	91.34368
1810.00000	88.49406
1810.50000	85.59759
1811.00000	83.32211
1811.50000	82.01547
1812.00000	81.40565
1812.50000	80.83020
1813.00000	79.63626
1813.50000	77.77636
1814.00000	75.84838
1814.50000	74.85687
1815.00000	75.41503
1815.50000	77.42032
1816.00000	79.99175
1816.50000	82.09575
1817.00000	83.01123
1817.50000	82.87170
1818.00000	82.49013
1818.50000	82.91800
1819.00000	84.62851
1819.50000	87.28763
1820.00000	89.84541
1820.50000	91.28570
1821.00000	91.14957
1821.50000	89.83696
1822.00000	88.20663
1822.50000	87.01865
1823.00000	86.31983
1823.50000	85.55329
1824.00000	83.97083
1824.50000	81.28504
1825.00000	77.91032
1825.50000	74.72150
1826.00000	72.40974
1826.50000	71.07026
1827.00000	70.08444
1827.50000	68.64188
1828.00000	66.24834
1828.50000	63.06950
1829.00000	59.82755
1829.50000	57.46925
1830.00000	56.68388
1830.50000	57.52078
1831.00000	59.40965
1831.50000	61.44872
1832.00000	62.96030
1832.50000	63.78080
1833.00000	64.25577
1833.50000	64.82211
1834.00000	65.63789
1834.50000	66.36649
1835.00000	66.55747
1835.50000	66.05336
1836.00000	65.28425
1836.50000	64.97198
1837.00000	65.72115
1837.50000	67.44440
1838.00000	69.51927
1838.50000	71.10098
1839.00000	71.79368
1839.50000	71.74632
1840.00000	71.57327
1840.50000	71.81872
1841.00000	72.76756
1841.50000	74.21954
1842.00000	75.68830
1842.50000	76.56647
1843.00000	76.55611
1843.50000	75.75426
1844.00000	74.65615
1844.50000	73.76518
1845.00000	73.31859
1845.50000	73.15206
1846.00000	72.97846
1846.50000	72.70342
1847.00000	72.71022
1847.50000	73.55328
1848.00000	75.58073
1848.50000	78.53590
1849.00000	81.73812
1849.50000	84.42706
1850.00000	86.34824
1850.50000	87.79153
1851.00000	89.40342
1851.50000	91.59244
1852.00000	94.34261
1852.50000	97.21535
1853.00000	99.82562
1853.50000	102.03482
1854.00000	104.10183
1854.50000	106.36079
1855.00000	109.04076
1855.50000	112.02383
1856.00000	115.00266
1856.50000	117.61820
1857.00000	119.69480
1857.50000	121.33067
1858.00000	122.82304
1858.50000	124.46356
1859.00000	126.39442
1859.50000	128.52707
1860.00000	130.63713
1860.50000	132.45499
1861.00000	133.83086
1861.50000	134.78831
1862.00000	135.51201
1862.50000	136.17671
1863.00000	136.80772
1863.50000	137.28575
1864.00000	137.47130
1864.50000	137.36122
1865.00000	137.10405
1865.50000	136.82060
1866.00000	136.47144
1866.50000	135.78075
1867.00000	134.57680
1867.50000	133.03357
1868.00000	131.81059
1868.50000	131.64247
1869.00000	132.92307
1869.50000	135.50781
1870.00000	138.82977
1870.50000	142.31386
1871.00000	145.59908
1871.50000	148.63467
1872.00000	151.45020
1872.50000	154.07661
1873.00000	156.60687
1873.50000	159.24796
1874.00000	162.22487
1874.50000	165.45683
1875.00000	168.48477
1875.50000	170.60382
1876.00000	171.30968
1876.50000	170.55099
1877.00000	168.73048
1877.50000	166.34306
1878.00000	163.71259
1878.50000	160.93135
1879.00000	158.16216
1879.50000	155.68735
1880.00000	153.92752
1880.50000	153.08188
1881.00000	153.06714
1881.50000	153.48514
1882.00000	153.88795
1882.50000	153.95880
1883.00000	153.60249
1883.50000	152.93520
1884.00000	152.18207
1884.50000	151.64261
1885.00000	151.60400
1885.50000	152.26544
1886.00000	153.65280
1886.50000	155.63622
1887.00000	157.99709
1887.50000	160.49365
1888.00000	162.89842
1888.50000	164.98071
1889.00000	166.57639
1889.50000	167.63800
1890.00000	168.30865
1890.50000	168.82007
1891.00000	169.39478
1891.50000	170.07317
1892.00000	170.80594
1892.50000	171.44179
1893.00000	171.85603
1893.50000	171.83144
1894.00000	171.13455
1894.50000	169.51094
1895.00000	166.87236
1895.50000	163.40298
1896.00000	159.53070
1896.50000	155.70148
1897.00000	152.21501
1897.50000	149.27031
1898.00000	147.04781
1898.50000	145.79819
1899.00000	145.64633
1899.50000	146.50658
1900.00000	147.96385
1900.50000	149.58626
1901.00000	151.14551
1901.50000	152.79572
1902.00000	154.76283
1902.50000	157.04904
1903.00000	159.29091
1903.50000	161.05916
1904.00000	162.20914
1904.50000	162.98863
1905.00000	163.75584
1905.50000	164.53386
1906.00000	164.94308
1906.50000	164.50102
1907.00000	163.17810
1907.50000	161.53798
1908.00000	160.39343
1908.50000	160.10477
1909.00000	160.37770
1909.50000	160.59718
1910.00000	160.46458
1910.50000	160.19531
1911.00000	160.22534
1911.50000	160.59724
1912.00000	160.70718
1912.50000	159.75044
1913.00000	157.37210
1913.50000	154.10735
1914.00000	150.96152
1914.50000	148.71841
1915.00000	147.26630
1915.50000	145.87891
1916.00000	143.82297
1916.50000	140.99603
1917.00000	137.85535
1917.50000	135.04077
1918.00000	132.95082
1918.50000	131.71571
1919.00000	131.37680
1919.50000	131.91298
1920.00000	133.11118
1920.50000	134.36421
1921.00000	134.98640
1921.50000	134.59653
1922.00000	133.44513
1922.50000	132.14102
1923.00000	131.18462
1923.50000	130.55823
1924.00000	129.91719
1924.50000	129.07050
1925.00000	128.23732
1925.50000	127.79622
1926.00000	127.69933
1926.50000	127.33578
1927.00000	125.95066
1927.50000	123.51269
1928.00000	120.97011
1928.50000	119.71233
1929.00000	120.52128
1929.50000	122.95905
1930.00000	125.74107
1930.50000	127.64735
1931.00000	128.26923
1931.50000	127.96840
1932.00000	127.35368
1932.50000	126.73937
1933.00000	126.09024
1933.50000	125.23061
1934.00000	124.12285
1934.50000	122.83052
1935.00000	121.40899
1935.50000	119.83575
1936.00000	118.10912
1936.50000	116.29591
1937.00000	114.47201
1937.50000	112.62450
1938.00000	110.70705
1938.50000	108.87099
1939.00000	107.61956
1939.50000	107.65353
1940.00000	109.44563
1940.50000	112.81768
1941.00000	116.90689
1941.50000	120.58105
1942.00000	123.09332
1942.50000	124.31821
1943.00000	124.63449
1943.50000	124.54562
1944.00000	124.35934
1944.50000	124.08661
1945.00000	123.53678
1945.50000	122.53612
1946.00000	121.08956
1946.50000	119.40468
1947.00000	117.81438
1947.50000	116.56425
1948.00000	115.63362
1948.50000	114.69949
1949.00000	113.34446
1949.50000	111.41080
1950.00000	109.18652
1950.50000	107.36027
1951.00000	106.63251
1951.50000	107.35365
1952.00000	109.29177
1952.50000	111.81660
1953.00000	114.16693
1953.50000	115.83363
1954.00000	116.66248
1954.50000	116.90599
1955.00000	117.05065
1955.50000	117.67693
1956.00000	119.13301
1956.50000	121.39297
1957.00000	124.06405
1957.50000	126.64368
1958.00000	128.78185
1958.50000	130.38541
1959.00000	131.55553
1959.50000	132.33018
1960.00000	132.56053
1960.50000	131.98289
1961.00000	130.51520
1961.50000	128.40335
1962.00000	126.19516
1962.50000	124.44986
1963.00000	123.47342
1963.50000	123.18620
1964.00000	123.23911
1964.50000	123.24354
1965.00000	122.93002
1965.50000	122.23831
1966.00000	121.31344
1966.50000	120.46614
1967.00000	120.05169
1967.50000	120.35378
1968.00000	121.49245
1968.50000	123.43814
1969.00000	126.05186
1969.50000	129.16852
1970.00000	132.66949
1970.50000	136.39650
1971.00000	140.15549
1971.50000	143.60208
1972.00000	146.38943
1972.50000	148.25644
1973.00000	149.27512
1973.50000	149.81920
1974.00000	150.48253
1974.50000	151.65465
1975.00000	153.29457
1975.50000	154.82173
1976.00000	155.46373
1976.50000	154.64905
1977.00000	152.35065
1977.50000	149.05922
1978.00000	145.47397
1978.50000	142.13969
1979.00000	139.31610
1979.50000	137.11395
1980.00000	135.68500
1980.50000	135.27689
1981.00000	136.04634
1981.50000	137.91870
1982.00000	140.48183
1982.50000	143.14882
1983.00000	145.39064
1983.50000	146.93291
1984.00000	147.78818
1984.50000	148.19110
1985.00000	148.46864
1985.50000	148.90517
1986.00000	149.62418
1986.50000	150.50691
1987.00000	151.23848
1987.50000	151.42892
1988.00000	150.84541
1988.50000	149.54370
1989.00000	147.84595
1989.50000	146.13510
1990.00000	144.60120
1990.50000	143.21657
1991.00000	141.87924
1991.50000	140.64742
1992.00000	139.80307
1992.50000	139.70807
1993.00000	140.51839
1993.50000	142.02426
1994.00000	143.71294
1994.50000	145.06276
1995.00000	145.75435
1995.50000	145.78349
1996.00000	145.37975
1996.50000	144.93161
1997.00000	144.84076
1997.50000	145.39902
1998.00000	146.66872
1998.50000	148.37386
1999.00000	149.99388
1999.50000	150.93721
2000.00000	150.86882
2000.50000	149.78636
2001.00000	147.95909
2001.50000	145.80089
2002.00000	143.75404
2002.50000	142.30565
2003.00000	141.76828
2003.50000	142.20699
2004.00000	143.26097
2004.50000	144.30858
2005.00000	144.73561
2005.50000	144.30766
2006.00000	143.17131
2006.50000	141.63603
2007.00000	139.83315
2007.50000	137.71573
2008.00000	135.21243
2008.50000	132.44501
2009.00000	129.64998
2009.50000	126.98086
2010.00000	124.39028
2010.50000	121.67691
2011.00000	118.72334
2011.50000	115.52088
2012.00000	112.21132
2012.50000	108.94716
2013.00000	105.98386
2013.50000	103.72572
2014.00000	102.63486
2014.50000	102.96555
2015.00000	104.42453
2015.50000	106.31535
2016.00000	107.87131
2016.50000	108.78677
2017.00000	109.34570
2017.50000	110.13795
2018.00000	111.54984
2018.50000	113.39532
2019.00000	115.07675
2019.50000	115.99781
2020.00000	115.90054
2020.50000	114.90060
2021.00000	113.25125
2021.50000	111.17351
2022.00000	108.73174
2022.50000	105.90143
2023.00000	102.65034
2023.50000	98.97571
2024.00000	94.96725
2024.50000	90.75487
2025.00000	86.51462
2025.50000	82.40170
2026.00000	78.59566
2026.50000	75.28762
2027.00000	72.72202
2027.50000	71.13165
2028.00000	70.72147
2028.50000	71.57234
2029.00000	73.67161
2029.50000	76.88515
2030.00000	80.94868
2030.50000	85.40002
2031.00000	89.68109
2031.50000	93.23233
2032.00000	95.66470
2032.50000	96.79375
2033.00000	96.60152
2033.50000	95.12141
2034.00000	92.42793
2034.50000	88.68089
2035.00000	84.16080
2035.50000	79.17464
2036.00000	73.92636
2036.50000	68.42852
2037.00000	62.57282
2037.50000	56.29783
2038.00000	49.72015
2038.50000	43.18500
2039.00000	37.12991
2039.50000	31.98882
2040.00000	28.07422
2040.50000	25.58285
2041.00000	24.61564
2041.50000	25.22198
2042.00000	27.41085
2042.50000	31.00812
2043.00000	35.54131
2043.50000	40.20074
2044.00000	44.11940
2044.50000	46.75494
2045.00000	48.20252
2045.50000	49.11097
2046.00000	50.22076
2046.50000	51.78819
2047.00000	53.50817
2047.50000	54.81527
2048.00000	55.35767
2048.50000	55.08484
2049.00000	54.09045
2049.50000	52.38929
2050.00000	50.03421
2050.50000	47.36178
2051.00000	45.04671
2051.50000	43.79753
2052.00000	43.86408
2052.50000	44.83801
2053.00000	45.95972
2053.50000	46.69756
2054.00000	47.13464
2054.50000	47.68827
2055.00000	48.73929
2055.50000	50.20349
2056.00000	51.78433
2056.50000	53.17356
2057.00000	54.41164
2057.50000	55.69188
2058.00000	57.17730
2058.50000	58.70353
2059.00000	59.95662
2059.50000	60.51403
2060.00000	60.12127
2060.50000	58.62536
2061.00000	56.10520
2061.50000	52.73511
2062.00000	48.82782
2062.50000	44.71726
2063.00000	40.68884
2063.50000	36.85945
2064.00000	33.13208
2064.50000	29.31708
2065.00000	25.37185
2065.50000	21.64949
2066.00000	18.87473
2066.50000	17.75858
2067.00000	18.51474
2067.50000	20.62211
2068.00000	23.12272
2068.50000	25.17075
2069.00000	26.54392
2069.50000	27.58100
2070.00000	28.75526
2070.50000	30.14770
2071.00000	31.48528
2071.50000	32.41741
2072.00000	32.97012
2072.50000	33.41900
2073.00000	34.06321
2073.50000	34.81958
2074.00000	35.42437
2074.50000	35.70825
2075.00000	35.87472
2075.50000	36.27391
2076.00000	37.02206
2076.50000	37.89177
2077.00000	38.53635
2077.50000	38.97136
2078.00000	39.61712
2078.50000	41.02320
2079.00000	43.28802
2079.50000	45.90047
2080.00000	47.99511
2080.50000	48.96665
2081.00000	48.78021
2081.50000	47.91610
2082.00000	46.91669
2082.50000	46.09245
2083.00000	45.41001
2083.50000	44.72151
2084.00000	43.88520
2084.50000	42.84833
2085.00000	41.57520
2085.50000	40.04183
2086.00000	38.31881
2086.50000	36.56712
2087.00000	34.97393
2087.50000	33.50567
2088.00000	31.93615
2088.50000	30.03497
2089.00000	27.95246
2089.50000	26.25302
2090.00000	25.61441
2090.50000	26.27107
2091.00000	27.82500
2091.50000	29.51617
2092.00000	30.84081
2092.50000	31.83568
2093.00000	32.89769
2093.50000	34.25166
2094.00000	35.69477
2094.50000	36.77564
2095.00000	37.26730
2095.50000	37.43100
2096.00000	37.80787
2096.50000	38.84447
2097.00000	40.63717
2097.50000	43.00353
2098.00000	45.62188
2098.50000	48.09688
2099.00000	49.93435
2099.50000	50.65993
2100.00000	50.08035
2100.50000	48.56630
2101.00000	46.92021
2101.50000	45.90134
2102.00000	45.77191
2102.50000	46.23960
2103.00000	46.85761
2103.50000	47.35794
2104.00000	47.75507
2104.50000	48.08097
2105.00000	48.25073
2105.50000	48.08935
2106.00000	47.61538
2106.50000	47.07966
2107.00000	46.83692
2107.50000	46.99515
2108.00000	47.39086
2108.50000	47.69387
2109.00000	47.76232
2109.50000	47.63110
2110.00000	47.47020
2110.50000	47.39301
2111.00000	47.50400
2111.50000	47.95343
2112.00000	48.92756
2112.50000	50.57233
2113.00000	52.78294
2113.50000	55.28353
2114.00000	57.75508
2114.50000	60.05835
2115.00000	62.15123
2115.50000	63.92945
2116.00000	65.13373
2116.50000	65.50320
2117.00000	65.02217
2117.50000	64.02883
2118.00000	62.98747
2118.50000	62.12944
2119.00000	61.29828
2119.50000	60.14618
2120.00000	58.54679
2120.50000	56.73064
2121.00000	55.19271
2121.50000	54.22525
2122.00000	53.83382
2122.50000	53.77038
2123.00000	53.97227
2123.50000	54.56727
2124.00000	55.84779
2124.50000	57.76303
2125.00000	59.89735
2125.50000	61.50104
2126.00000	61.95725
2126.50000	60.97109
2127.00000	58.69911
2127.50000	55.60643
2128.00000	52.31032
2128.50000	49.35859
2129.00000	47.04455
2129.50000	45.31974
2130.00000	43.78121
2130.50000	41.97278
2131.00000	39.65999
2131.50000	37.13149
2132.00000	34.94362
2132.50000	33.57759
2133.00000	33.04549
2133.50000	33.04510
2134.00000	33.36659
2134.50000	34.17775
2135.00000	35.94514
2135.50000	38.86994
2136.00000	42.58382
2136.50000	46.09223
2137.00000	48.49585
2137.50000	49.39164
2138.00000	49.15498
2138.50000	48.51560
2139.00000	48.21448
2139.50000	48.60809
2140.00000	49.57942
2140.50000	50.58673
2141.00000	50.89281
2141.50000	49.94443
2142.00000	47.64966
2142.50000	44.50915
2143.00000	41.32685
2143.50000	38.84526
2144.00000	37.32211
2144.50000	36.63934
2145.00000	36.52258
2145.50000	36.90432
2146.00000	37.80050
2146.50000	39.11768
2147.00000	40.48117
2147.50000	41.44386
2148.00000	41.79206
2148.50000	41.78959
2149.00000	41.97198
2149.50000	42.79013
2150.00000	44.22678
2150.50000	45.86524
2151.00000	47.12481
2151.50000	47.60119
2152.00000	47.12191
2152.50000	45.74742
2153.00000	43.68554
2153.50000	41.32498
2154.00000	39.16642
2154.50000	37.69278
2155.00000	37.14629
2155.50000	37.31583
2156.00000	37.67984
2156.50000	37.66447
2157.00000	37.13761
2157.50000	36.37449
2158.00000	35.92093
2158.50000	36.11280
2159.00000	36.97984
2159.50000	38.25197
2160.00000	39.60590
2160.50000	40.78151
2161.00000	41.56582
2161.50000	41.70527
2162.00000	40.88661
2162.50000	38.97597
2163.00000	36.09696
2163.50000	32.67844
2164.00000	29.20836
2164.50000	26.11513
2165.00000	23.66738
2165.50000	21.97298
2166.00000	20.98073
2166.50000	20.42897
2167.00000	19.88853
2167.50000	18.86637
2168.00000	17.17050
2168.50000	15.03317
2169.00000	13.13906
2169.50000	12.07359
2170.00000	12.06427
2170.50000	12.72209
2171.00000	13.47608
2171.50000	13.81602
2172.00000	13.63896
2172.50000	13.03670
2173.00000	12.18353
2173.50000	11.10292
2174.00000	9.84467
2174.50000	8.52727
2175.00000	7.36652
2175.50000	6.53483
2176.00000	6.04538
2176.50000	5.80861
2177.00000	5.77584
2177.50000	5.99749
2178.00000	6.54665
2178.50000	7.32600
2179.00000	8.02913
2179.50000	8.25171
2180.00000	7.75782
2180.50000	6.55518
2181.00000	5.02086
2181.50000	3.70734
2182.00000	3.31625
2182.50000	4.33833
2183.00000	6.97064
2183.50000	10.86470
2184.00000	15.28316
2184.50000	19.35414
2185.00000	22.59284
2185.50000	25.04425
2186.00000	27.15133
2186.50000	29.27959
2187.00000	31.52238
2187.50000	33.71915
2188.00000	35.73741
2188.50000	37.61551
2189.00000	39.49624
2189.50000	41.36957
2190.00000	42.96746
2190.50000	43.86419
2191.00000	43.79087
2191.50000	42.82235
2192.00000	41.41705
2192.50000	40.24051
2193.00000	40.02209
2193.50000	41.23379
2194.00000	43.97577
2194.50000	47.82412
2195.00000	52.11597
2195.50000	56.21879
2196.00000	59.91870
2196.50000	63.48264
2197.00000	67.42702
2197.50000	72.09563
2198.00000	77.37085
2198.50000	82.78544
2199.00000	87.83886
2199.50000	92.33714
2200.00000	96.39581
2200.50000	100.30180
2201.00000	104.35863
2201.50000	108.85526
2202.00000	114.07134
2202.50000	120.14368
2203.00000	126.96006
2203.50000	134.04779
2204.00000	140.88045
2204.50000	147.21040
2205.00000	153.35663
2205.50000	159.88567
2206.00000	167.18959
2206.50000	174.96387
2207.00000	182.46469
2207.50000	188.92422
2208.00000	194.06818
2208.50000	197.99507
2209.00000	200.85391
2209.50000	202.50218
2210.00000	202.57967
2210.50000	200.87912
2211.00000	197.64075
2211.50000	193.56213
2212.00000	189.44878
2212.50000	185.94078
2213.00000	183.34628
2213.50000	181.64247
2214.00000	180.54152
2214.50000	179.59026
2215.00000	178.41823
2215.50000	176.92476
2216.00000	175.50783
2216.50000	174.87378
2217.00000	175.70293
2217.50000	178.03171
2218.00000	181.16084
2218.50000	183.84441
2219.00000	185.19308
2219.50000	185.08147
2220.00000	184.22231
2220.50000	183.42381
2221.00000	183.02797
2221.50000	182.66464
2222.00000	181.75482
2222.50000	180.09206
2223.00000	178.10205
2223.50000	176.58128
2224.00000	176.14339
2224.50000	176.93460
2225.00000	178.72874
2225.50000	181.25064
2226.00000	184.42506
2226.50000	188.39482
2227.00000	193.43964
2227.50000	199.86900
2228.00000	207.93959
2228.50000	217.69521
2229.00000	228.82814
2229.50000	240.72453
2230.00000	252.70815
2230.50000	264.54401
2231.00000	276.55359
2231.50000	289.43243
2232.00000	303.78268
2232.50000	319.77216
2233.00000	337.13361
2233.50000	355.46384
2234.00000	374.59091
2234.50000	394.68335
2235.00000	416.15021
2235.50000	439.39581
2236.00000	464.60156
2236.50000	491.68765
2237.00000	520.45618
2237.50000	550.71362
2238.00000	582.36359
2238.50000	615.35284
2239.00000	649.37720
2239.50000	683.86066
2240.00000	718.03076
2240.50000	751.25214
2241.00000	783.19196
2241.50000	813.79028
2242.00000	842.76062
2242.50000	869.55621
2243.00000	893.30103
2243.50000	913.38721
2244.00000	929.70422
2244.50000	942.52588
2245.00000	951.92633
2245.50000	957.47754
2246.00000	958.37006
2246.50000	954.05719
2247.00000	944.68848
2247.50000	930.96735
2248.00000	913.60699
2248.50000	892.84839
2249.00000	868.62439
2249.50000	840.90863
2250.00000	810.11664
2250.50000	776.94550
2251.00000	742.02710
2251.50000	705.86890
2252.00000	668.97430
2252.50000	631.95477
2253.00000	595.36957
2253.50000	559.42828
2254.00000	523.88342
2254.50000	488.57132
2255.00000	453.72546
2255.50000	420.08310
2256.00000	388.37515
2256.50000	358.85654
2257.00000	331.27725
2257.50000	305.38599
2258.00000	281.27679
2258.50000	259.35049
2259.00000	239.82822
2259.50000	222.43915
2260.00000	206.65685
2260.50000	192.14133
2261.00000	179.07607
2261.50000	167.80428
2262.00000	158.47292
2262.50000	150.68152
2263.00000	143.80128
2263.50000	137.27873
2264.00000	130.93146
2264.50000	124.83675
2265.00000	119.19951
2265.50000	114.14385
2266.00000	109.63699
2266.50000	105.50951
2267.00000	101.49191
2267.50000	97.37055
2268.00000	93.12518
2268.50000	88.85658
2269.00000	84.67306
2269.50000	80.48843
2270.00000	76.19067
2270.50000	71.75975
2271.00000	67.51728
2271.50000	63.81610
2272.00000	60.87849
2272.50000	58.43288
2273.00000	55.99369
2273.50000	53.04482
2274.00000	49.55584
2274.50000	45.92179
2275.00000	42.89231
2275.50000	41.02647
2276.00000	40.47375
2276.50000	40.85914
2277.00000	41.60203
2277.50000	42.28163
2278.00000	42.90684
2278.50000	43.82633
2279.00000	45.33126
2279.50000	47.28337
2280.00000	49.09081
2280.50000	50.08819
2281.00000	50.08165
2281.50000	49.51214
2282.00000	49.23273
2282.50000	49.74784
2283.00000	50.87204
2283.50000	51.70061
2284.00000	51.46765
2284.50000	50.07896
2285.00000	48.42532
2285.50000	47.55945
2286.00000	48.01899
2286.50000	49.22119
2287.00000	50.01556
2287.50000	49.36358
2288.00000	47.13614
2288.50000	44.07494
2289.00000	41.22466
2289.50000	39.16523
2290.00000	37.73030
2290.50000	36.26818
2291.00000	34.27802
2291.50000	31.79428
2292.00000	29.38774
2292.50000	27.63630
2293.00000	26.73399
2293.50000	26.30777
2294.00000	25.88114
2294.50000	25.22943
2295.00000	24.67365
2295.50000	24.68084
2296.00000	25.63821
2296.50000	27.49665
2297.00000	29.87116
2297.50000	32.03371
2298.00000	33.24631
2298.50000	32.93093
2299.00000	31.08411
2299.50000	28.23490
2300.00000	25.27365
2300.50000	22.77200
2301.00000	20.65341
2301.50000	18.39408
2302.00000	15.77147
2302.50000	13.23743
2303.00000	11.66297
2303.50000	11.45926
2304.00000	12.18649
2304.50000	12.86595
2305.00000	12.97424
2305.50000	12.90532
2306.00000	13.73808
2306.50000	16.19146
2307.00000	20.04341
2307.50000	24.17578
2308.00000	27.54820
2308.50000	29.78659
2309.00000	31.31001
2309.50000	32.65882
2310.00000	33.94305
2310.50000	34.63785
2311.00000	34.13453
2311.50000	32.29957
2312.00000	29.77681
2312.50000	27.51180
2313.00000	26.21702
2313.50000	25.95250
2314.00000	26.31658
2314.50000	26.74278
2315.00000	26.85353
2315.50000	26.45568
2316.00000	25.59784
2316.50000	24.57406
2317.00000	23.95439
2317.50000	24.31787
2318.00000	25.83936
2318.50000	28.01503
2319.00000	29.91710
2319.50000	30.78237
2320.00000	30.51767
2320.50000	29.56933
2321.00000	28.41035
2321.50000	27.03271
2322.00000	25.07091
2322.50000	22.35649
2323.00000	19.36311
2323.50000	17.00149
2324.00000	15.98951
2324.50000	16.32022
2325.00000	17.45052
2325.50000	18.86225
2326.00000	20.56788
2326.50000	22.86884
2327.00000	25.91635
2327.50000	29.33128
2328.00000	32.58312
2328.50000	35.41504
2329.00000	38.05505
2329.50000	40.85406
2330.00000	43.84855
2330.50000	46.65939
2331.00000	48.78240
2331.50000	49.95045
2332.00000	50.18144
2332.50000	49.59370
2333.00000	48.23762
2333.50000	46.15949
2334.00000	43.54077
2334.50000	40.72568
2335.00000	38.07839
2335.50000	35.89532
2336.00000	34.42970
2336.50000	33.85271
2337.00000	34.23249
2337.50000	35.36377
2338.00000	36.84106
2338.50000	38.13010
2339.00000	38.96154
2339.50000	39.38450
2340.00000	39.78684
2340.50000	40.52293
2341.00000	41.79083
2341.50000	43.61214
2342.00000	45.90633
2342.50000	48.48774
2343.00000	50.98132
2343.50000	52.91624
2344.00000	53.88280
2344.50000	53.79337
2345.00000	52.90455
2345.50000	51.62354
2346.00000	50.21252
2346.50000	48.77444
2347.00000	47.44566
2347.50000	46.51951
2348.00000	46.27538
2348.50000	46.63406
2349.00000	47.18382
2349.50000	47.48590
2350.00000	47.56501
2350.50000	47.89421
2351.00000	49.02178
2351.50000	51.04617
2352.00000	53.55804
2352.50000	55.98758
2353.00000	58.06237
2353.50000	60.00586
2354.00000	62.22560
2354.50000	64.97664
2355.00000	68.03575
2355.50000	70.90741
2356.00000	73.05570
2356.50000	74.34254
2357.00000	75.00882
2357.50000	75.48340
2358.00000	76.04111
2358.50000	76.72798
2359.00000	77.43702
2359.50000	78.11459
2360.00000	78.74509
2360.50000	79.33107
2361.00000	79.84422
2361.50000	80.39870
2362.00000	81.24995
2362.50000	82.60393
2363.00000	84.23679
2363.50000	85.54185
2364.00000	85.95277
2364.50000	85.56717
2365.00000	85.20187
2365.50000	85.94482
2366.00000	88.27391
2366.50000	91.77519
2367.00000	95.35917
2367.50000	98.06656
2368.00000	99.53281
2368.50000	100.09935
2369.00000	100.37273
2369.50000	100.79833
2370.00000	101.39859
2370.50000	101.87744
2371.00000	101.89200
2371.50000	101.33349
2372.00000	100.37045
2372.50000	99.32407
2373.00000	98.40294
2373.50000	97.61039
2374.00000	96.71848
2374.50000	95.54336
2375.00000	94.09735
2375.50000	92.78672
2376.00000	92.12355
2376.50000	92.55677
2377.00000	94.12865
2377.50000	96.56641
2378.00000	99.37260
2378.50000	102.12734
2379.00000	104.52522
2379.50000	106.42623
2380.00000	107.86448
2380.50000	109.11919
2381.00000	110.62328
2381.50000	112.62652
2382.00000	115.01967
2382.50000	117.41744
2383.00000	119.50363
2383.50000	121.18736
2384.00000	122.50512
2384.50000	123.34564
2385.00000	123.45528
2385.50000	122.69244
2386.00000	121.29640
2386.50000	119.82423
2387.00000	118.69989
2387.50000	117.97830
2388.00000	117.32259
2388.50000	116.50613
2389.00000	115.53900
2389.50000	114.70641
2390.00000	114.12748
2390.50000	113.65493
2391.00000	112.92455
2391.50000	111.82681
2392.00000	110.67348
2392.50000	110.06756
2393.00000	110.26424
2393.50000	110.93887
2394.00000	111.37244
2394.50000	111.17873
2395.00000	110.53709
2395.50000	110.01237
2396.00000	109.89933
2396.50000	110.03859
2397.00000	110.04511
2397.50000	109.78306
2398.00000	109.43522
2398.50000	109.16364
2399.00000	108.91303
2399.50000	108.59854
2400.00000	108.42224
2400.50000	108.80153
2401.00000	109.97916
2401.50000	111.65379
2402.00000	113.15640
2402.50000	113.98389
2403.00000	114.23344
2403.50000	114.49802
2404.00000	115.32489
2404.50000	116.78948
2405.00000	118.45741
2405.50000	119.80735
2406.00000	120.55171
2406.50000	120.79964
2407.00000	120.74005
2407.50000	120.46624
2408.00000	119.85330
2408.50000	118.94281
2409.00000	117.97241
2409.50000	117.31709
2410.00000	117.00304
2410.50000	116.70467
2411.00000	116.11098
2411.50000	115.42188
2412.00000	115.27308
2412.50000	116.07311
2413.00000	117.50273
2413.50000	118.63216
2414.00000	118.80916
2414.50000	118.12104
2415.00000	117.24682
2415.50000	116.80913
2416.00000	117.05407
2416.50000	117.96355
2417.00000	119.45856
2417.50000	121.36382
2418.00000	123.30421
2418.50000	124.79221
2419.00000	125.64106
2419.50000	126.14542
2420.00000	126.77145
2420.50000	127.68736
2421.00000	128.49829
2421.50000	128.74287
2422.00000	128.36012
2422.50000	127.98848
2423.00000	128.38329
2423.50000	129.80923
2424.00000	131.57018
2424.50000	132.49530
2425.00000	131.56374
2425.50000	128.71130
2426.00000	124.77938
2426.50000	121.07140
2427.00000	118.54239
2427.50000	117.55251
2428.00000	117.79056
2428.50000	118.63535
2429.00000	119.43328
2429.50000	119.85069
2430.00000	119.89378
2430.50000	119.85357
2431.00000	120.02462
2431.50000	120.45349
2432.00000	120.86320
2432.50000	120.94453
2433.00000	120.66116
2433.50000	120.33691
2434.00000	120.28738
2434.50000	120.48450
2435.00000	120.41113
2435.50000	119.54021
2436.00000	117.71072
2436.50000	115.43730
2437.00000	113.45059
2437.50000	112.44950
2438.00000	112.63523
2438.50000	113.83869
2439.00000	115.45191
2439.50000	116.69277
2440.00000	116.77187
2440.50000	115.33605
2441.00000	112.78586
2441.50000	110.07220
2442.00000	108.10345
2442.50000	107.11478
2443.00000	106.66953
2443.50000	106.16422
2444.00000	105.35339
2444.50000	104.34597
2445.00000	103.29881
2445.50000	102.22827
2446.00000	101.20403
2446.50000	100.64763
2447.00000	101.23002
2447.50000	103.49650
2448.00000	107.33113
2448.50000	112.10096
2449.00000	116.93135
2449.50000	121.23228
2450.00000	124.67108
2450.50000	127.08749
2451.00000	128.36086
2451.50000	128.47447
2452.00000	127.63704
2452.50000	126.18828
2453.00000	124.47303
2453.50000	122.55596
2454.00000	120.36700
2454.50000	117.84438
2455.00000	115.33943
2455.50000	113.42052
2456.00000	112.57294
2456.50000	112.64000
2457.00000	113.14583
2457.50000	113.73206
2458.00000	114.74909
2458.50000	116.91354
2459.00000	120.69026
2459.50000	125.61665
2460.00000	130.55659
2460.50000	134.41138
2461.00000	136.74641
2461.50000	137.73064
2462.00000	137.70341
2462.50000	136.91660
2463.00000	135.57552
2463.50000	133.93703
2464.00000	132.27602
2464.50000	130.74023
2465.00000	129.37953
2465.50000	128.34285
2466.00000	128.08450
2466.50000	129.05942
2467.00000	131.37837
2467.50000	134.41081
2468.00000	137.09328
2468.50000	138.43596
2469.00000	138.37218
2469.50000	137.75024
2470.00000	137.86436
2470.50000	139.38783
2471.00000	141.94098
2471.50000	144.17906
2472.00000	144.79292
2472.50000	143.24863
2473.00000	140.09589
2473.50000	136.48245
2474.00000	133.48973
2474.50000	131.77823
2475.00000	131.38336
2475.50000	132.01506
2476.00000	133.20160
2476.50000	134.54950
2477.00000	135.75404
2477.50000	136.65343
2478.00000	137.12549
2478.50000	136.94412
2479.00000	135.95166
2479.50000	134.18954
2480.00000	132.10432
2480.50000	130.29788
2481.00000	129.28691
2481.50000	129.15631
2482.00000	129.58131
2482.50000	129.96944
2483.00000	129.71973
2483.50000	128.48303
2484.00000	126.39233
2484.50000	124.15775
2485.00000	122.78271
2485.50000	123.02765
2486.00000	124.76277
2486.50000	127.16955
2487.00000	129.17580
2487.50000	130.35875
2488.00000	130.87044
2488.50000	131.15543
2489.00000	131.25053
2489.50000	130.92831
2490.00000	130.02907
2490.50000	128.91551
2491.00000	128.27972
2491.50000	128.71414
2492.00000	130.21498
2492.50000	132.17126
2493.00000	133.73747
2493.50000	134.39580
2494.00000	134.20206
2494.50000	133.60132
2495.00000	133.01923
2495.50000	132.63190
2496.00000	132.38699
2496.50000	132.22481
2497.00000	132.06885
2497.50000	131.64873
2498.00000	130.48933
2498.50000	128.30476
2499.00000	125.50933
2499.50000	123.07404
2500.00000	121.84171
2500.50000	121.86533
2501.00000	122.52908
2501.50000	123.38998
2502.00000	124.59223
2502.50000	126.60945
2503.00000	129.50040
2503.50000	132.86923
2504.00000	136.19588
2504.50000	139.38217
2505.00000	142.50455
2505.50000	145.50403
2506.00000	147.96373
2506.50000	149.47444
2507.00000	149.84242
2507.50000	149.23935
2508.00000	147.91458
2508.50000	146.17638
2509.00000	144.35207
2509.50000	142.80104
2510.00000	141.70515
2510.50000	140.90326
2511.00000	140.09592
2511.50000	139.01299
2512.00000	137.74586
2512.50000	136.60239
2513.00000	135.94176
2513.50000	135.90497
2514.00000	136.37193
2514.50000	137.06688
2515.00000	137.79582
2515.50000	138.58620
2516.00000	139.40709
2516.50000	139.94429
2517.00000	139.55078
2517.50000	137.85315
2518.00000	135.11810
2518.50000	132.16475
2519.00000	129.63585
2519.50000	127.66531
2520.00000	126.08789
2520.50000	125.05158
2521.00000	125.06917
2521.50000	126.46825
2522.00000	128.81100
2522.50000	131.05319
2523.00000	132.40126
2523.50000	132.94594
2524.00000	133.44174
2524.50000	134.46924
2525.00000	135.91013
2525.50000	137.24515
2526.00000	138.21587
2526.50000	139.08261
2527.00000	140.22055
2527.50000	141.59528
2528.00000	142.73959
2528.50000	143.34537
2529.00000	143.65337
2529.50000	144.27725
2530.00000	145.36595
2530.50000	146.34735
2531.00000	146.30318
2531.50000	144.99884
2532.00000	143.11803
2532.50000	141.74284
2533.00000	141.41489
2533.50000	141.86142
2534.00000	142.35112
2534.50000	142.21809
2535.00000	141.11018
2535.50000	139.03064
2536.00000	136.34360
2536.50000	133.76303
2537.00000	132.05949
2537.50000	131.57054
2538.00000	132.06517
2538.50000	132.98518
2539.00000	133.82565
2539.50000	134.36945
2540.00000	134.64478
2540.50000	134.74004
2541.00000	134.74536
2541.50000	134.78226
2542.00000	134.89639
2542.50000	135.07654
2543.00000	135.22925
2543.50000	135.33388
2544.00000	135.38609
2544.50000	135.40855
2545.00000	135.29610
2545.50000	134.90738
2546.00000	134.11412
2546.50000	132.88997
2547.00000	131.37753
2547.50000	129.94092
2548.00000	129.00134
2548.50000	128.66820
2549.00000	128.42442
2549.50000	127.28896
2550.00000	124.64227
2550.50000	120.74072
2551.00000	116.67156
2551.50000	113.58727
2552.00000	112.13026
2552.50000	112.21899
2553.00000	113.47517
2553.50000	115.53227
2554.00000	118.14509
2554.50000	120.98587
2555.00000	123.62562
2555.50000	125.69707
2556.00000	127.14258
2556.50000	128.12527
2557.00000	128.94644
2557.50000	129.82288
2558.00000	130.86858
2558.50000	131.99193
2559.00000	132.91547
2559.50000	133.11136
2560.00000	131.96643
2560.50000	129.02788
2561.00000	124.31429
2561.50000	118.36102
2562.00000	112.11592
2562.50000	106.52576
2563.00000	102.24744
2563.50000	99.33955
2564.00000	97.47930
2564.50000	96.19273
2565.00000	95.37965
2565.50000	95.30627
2566.00000	96.40166
2566.50000	98.66006
2567.00000	101.53568
2567.50000	104.29249
2568.00000	106.54512
2568.50000	108.43066
2569.00000	110.40864
2569.50000	112.78528
2570.00000	115.42413
2570.50000	117.66952
2571.00000	118.67786
2571.50000	117.86574
2572.00000	115.36182
2572.50000	112.04687
2573.00000	109.00819
2573.50000	106.73927
2574.00000	104.97246
2574.50000	103.16450
2575.00000	101.09075
2575.50000	98.97681
2576.00000	97.22510
2576.50000	95.97835
2577.00000	95.17199
2577.50000	94.53840
2578.00000	93.81710
2578.50000	92.76891
2579.00000	91.43793
2579.50000	90.26104
2580.00000	89.82316
2580.50000	90.45898
2581.00000	91.82323
2581.50000	93.14088
2582.00000	93.55399
2582.50000	92.77485
2583.00000	91.17751
2583.50000	89.68271
2584.00000	89.20505
2584.50000	90.10871
2585.00000	91.79205
2585.50000	93.17899
2586.00000	93.60771
2586.50000	93.37911
2587.00000	93.24065
2587.50000	93.56791
2588.00000	93.78574
2588.50000	92.91676
2589.00000	90.43856
2589.50000	86.80190
2590.00000	83.10931
2590.50000	80.57279
2591.00000	79.92924
2591.50000	81.20802
2592.00000	83.75446
2592.50000	86.58510
2593.00000	88.71597
2593.50000	89.64488
2594.00000	89.42305
2594.50000	88.63827
2595.00000	88.01221
2595.50000	88.00855
2596.00000	88.56364
2596.50000	89.17069
2597.00000	89.43720
2597.50000	89.72286
2598.00000	90.87169
2598.50000	93.44855
2599.00000	96.95751
2599.50000	100.18261
2600.00000	102.00658
2600.50000	102.43101
2601.00000	102.22015
2601.50000	102.27295
2602.00000	102.89475
2602.50000	104.03326
2603.00000	105.55108
2603.50000	107.35445
2604.00000	109.15015
2604.50000	110.30879
2605.00000	110.07001
2605.50000	107.95506
2606.00000	104.10444
2606.50000	99.29003
2607.00000	94.50093
2607.50000	90.51716
2608.00000	87.73438
2608.50000	86.24055
2609.00000	85.83837
2609.50000	86.19221
2610.00000	86.80095
2610.50000	87.44820
2611.00000	88.23458
2611.50000	89.64052
2612.00000	91.61111
2612.50000	93.61575
2613.00000	94.65393
2613.50000	94.37683
2614.00000	93.22832
2614.50000	92.24624
2615.00000	92.03146
2615.50000	92.35308
2616.00000	92.39925
2616.50000	91.41829
2617.00000	89.21156
2617.50000	86.15978
2618.00000	83.02058
2618.50000	80.61625
2619.00000	79.42514
2619.50000	79.47647
2620.00000	80.20612
2620.50000	80.88848
2621.00000	80.90134
2621.50000	80.31680
2622.00000	79.79287
2622.50000	80.21906
2623.00000	81.82004
2623.50000	83.89456
2624.00000	85.00109
2624.50000	84.31658
2625.00000	82.14245
2625.50000	79.89297
2626.00000	78.74852
2626.50000	78.91796
2627.00000	79.53314
2627.50000	79.68014
2628.00000	79.02348
2628.50000	77.93453
2629.00000	76.90575
2629.50000	76.16262
2630.00000	75.60345
2630.50000	75.12740
2631.00000	74.74102
2631.50000	74.59473
2632.00000	74.73524
2632.50000	75.23710
2633.00000	76.09290
2633.50000	77.32918
2634.00000	78.93539
2634.50000	80.81358
2635.00000	82.71512
2635.50000	84.31966
2636.00000	85.46896
2636.50000	86.31075
2637.00000	87.21852
2637.50000	88.33054
2638.00000	89.25213
2638.50000	89.20406
2639.00000	87.73837
2639.50000	85.13849
2640.00000	82.20206
2640.50000	79.54521
2641.00000	77.16252
2641.50000	74.68689
2642.00000	71.95089
2642.50000	69.28156
2643.00000	67.19082
2643.50000	65.95412
2644.00000	65.41068
2644.50000	65.12999
2645.00000	64.65356
2645.50000	63.64000
2646.00000	62.09797
2646.50000	60.27520
2647.00000	58.72822
2647.50000	57.96259
2648.00000	58.30380
2648.50000	59.64372
2649.00000	61.46207
2649.50000	63.01988
2650.00000	63.94622
2650.50000	64.53008
2651.00000	65.60078
2651.50000	67.72336
2652.00000	70.67149
2652.50000	73.38608
2653.00000	74.91570
2653.50000	74.95547
2654.00000	73.96661
2654.50000	72.68005
2655.00000	71.65190
2655.50000	71.01258
2656.00000	70.50130
2656.50000	69.57261
2657.00000	67.76299
2657.50000	65.13198
2658.00000	62.55827
2658.50000	61.15360
2659.00000	61.50473
2659.50000	63.04850
2660.00000	64.44309
2660.50000	64.52994
2661.00000	63.01046
2661.50000	60.56813
2662.00000	58.30278
2662.50000	57.02164
2663.00000	56.76296
2663.50000	56.94807
2664.00000	56.92383
2664.50000	56.35594
2665.00000	55.51510
2665.50000	54.76620
2666.00000	54.42366
2666.50000	54.62267
2667.00000	55.54840
2667.50000	57.36674
2668.00000	60.07325
2668.50000	63.26456
2669.00000	66.44297
2669.50000	69.33396
2670.00000	71.99290
2670.50000	74.34442
2671.00000	75.83750
2671.50000	75.70953
2672.00000	73.61578
2672.50000	70.19753
2673.00000	66.61217
2673.50000	63.81560
2674.00000	61.83824
2674.50000	60.02999
2675.00000	57.63565
2675.50000	54.66630
2676.00000	51.73785
2676.50000	49.54551
2677.00000	48.20018
2677.50000	47.26437
2678.00000	46.23946
2678.50000	45.11368
2679.00000	44.24592
2679.50000	43.88722
2680.00000	43.88242
2680.50000	43.80511
2681.00000	43.48238
2681.50000	43.02641
2682.00000	42.71113
2682.50000	42.50478
2683.00000	42.12243
2683.50000	41.25857
2684.00000	39.95762
2684.50000	38.61874
2685.00000	37.76193
2685.50000	37.47911
2686.00000	37.31869
2686.50000	36.59959
2687.00000	35.05060
2687.50000	33.18459
2688.00000	31.75015
2688.50000	30.91829
2689.00000	29.94226
2689.50000	27.81816
2690.00000	24.30206
2690.50000	20.26521
2691.00000	16.86524
2691.50000	14.74560
2692.00000	13.76642
2692.50000	13.41485
2693.00000	13.32378
2693.50000	13.32479
2694.00000	13.36653
2694.50000	13.38243
2695.00000	13.36392
2695.50000	13.31976
2696.00000	13.34281
2696.50000	13.56446
2697.00000	14.30481
2697.50000	15.79022
2698.00000	18.04046
2698.50000	20.68760
2699.00000	23.27334
2699.50000	25.48532
2700.00000	27.30217
2700.50000	28.79990
2701.00000	30.12013
2701.50000	31.44532
2702.00000	32.96711
2702.50000	34.64026
2703.00000	36.11039
2703.50000	37.01402
2704.00000	37.37154
2704.50000	37.48016
2705.00000	37.53289
2705.50000	37.33449
2706.00000	36.49647
2706.50000	34.87017
2707.00000	32.64552
2707.50000	30.17896
2708.00000	27.83388
2708.50000	25.97495
2709.00000	24.93614
2709.50000	24.75546
2710.00000	25.08772
2710.50000	25.43563
2711.00000	25.52689
2711.50000	25.36741
2712.00000	25.00020
2712.50000	24.41087
2713.00000	23.56000
2713.50000	22.63404
2714.00000	21.77172
2714.50000	21.10313
2715.00000	20.61859
2715.50000	20.44387
2716.00000	20.80254
2716.50000	21.75719
2717.00000	23.00327
2717.50000	24.07273
2718.00000	24.59053
2718.50000	24.65993
2719.00000	24.65855
2719.50000	25.03397
2720.00000	25.95534
2720.50000	27.26534
2721.00000	28.68661
2721.50000	30.17305
2722.00000	31.90220
2722.50000	33.87110
2723.00000	35.61961
2723.50000	36.44048
2724.00000	35.97698
2724.50000	35.97698
2725.00000	35.97698
2725.50000	35.97698
2726.00000	35.97698
2726.50000	35.97698
2727.00000	35.97698
2727.50000	35.97698
2728.00000	35.97698
2728.50000	35.97698
2729.00000	35.97698
2729.50000	35.97698
2730.00000	35.97698
