Baseline 100%T,,Baseline 0%T,,thf_blank,,001G_1mg_ml,,005P_1mg_ml,,005P_0.6mg_ml,,
Wavelength (nm),%T,Wavelength (nm),%T,Wavelength (nm),Abs,Wavelength (nm),Abs,Wavelength (nm),Abs,Wavelength (nm),Abs,
800,92.9378891,800,0.001338420669,800,0.0002426969877,800,0.0002868335578,800,0.002901938977,800,0.003573438153,
799,92.95669556,799,0.000492466439,799,0.0003955105494,799,0.0004713544331,799,0.002996753668,799,0.003655947512,
798,92.92552185,798,0.001094024396,798,0.0002391745365,798,0.0003604822559,798,0.002883280627,798,0.003485647263,
797,92.92276001,797,0.001278956654,797,0.0001905107347,797,0.0003691613383,797,0.002872075653,797,0.003505166387,
796,92.92919922,796,0.001138436026,796,0.000251011108,796,0.0003621403303,796,0.002912910189,796,0.00359614566,
795,92.9372406,795,0.001234803232,795,0.000332943484,795,0.0004277691478,795,0.002939935308,795,0.003693174571,
794,92.95541382,794,0.001115079154,794,0.0005117563414,794,0.0004480323987,794,0.002956146142,794,0.003721553832,
793,92.96560669,793,0.000949858455,793,0.0004618958919,793,0.0004746196209,793,0.002977570286,793,0.003896752838,
792,92.96303558,792,0.0009276443161,792,0.0003775296791,792,0.0005020637182,792,0.002896075603,792,0.003783932189,
791,92.97341156,791,0.001073604799,791,0.0004278986889,791,0.0004806576762,791,0.002930422779,791,0.003634881461,
790,92.98239136,790,0.00107018766,790,0.0003291353351,790,0.0004985132255,790,0.002803132404,790,0.003668477992,
789,92.99333954,789,0.0009739313973,789,0.0003427877964,789,0.0004075327597,789,0.002858030843,789,0.003730222117,
788,93.01947784,788,0.0009361556149,788,0.000395899202,788,0.0005176135455,788,0.002882420784,788,0.003746880218,
787,93.01870728,787,0.0006079086452,787,0.0003226071713,787,0.0003218559432,787,0.002822542796,787,0.003671532497,
786,93.04128265,786,0.0007308583008,786,0.0003305083374,786,0.0004857369931,786,0.002847946947,786,0.003788710805,
785,93.04112244,785,0.0008982848376,785,0.0003746538714,785,0.0004552880127,785,0.002697289689,785,0.003622247605,
784,93.0641098,784,0.001043096767,784,0.0002890353499,784,0.0003833073133,784,0.002736727009,784,0.003605098464,
783,93.11257172,783,0.0008436929202,783,0.0004079991195,783,0.0005231338437,783,0.002969099442,783,0.003847207408,
782,93.11363983,782,0.0005323378718,782,0.0003896809358,782,0.0004439641198,782,0.002860975219,782,0.003716201754,
781,93.13549042,781,0.0007776739076,781,0.0003658710339,781,0.0003992156417,781,0.00295690191,781,0.003651927458,
780,93.1512146,780,0.0007105130935,780,0.000386882748,780,0.0004432903952,780,0.002919373102,780,0.00371755939,
779,93.16730499,779,0.0008497991948,779,0.0002924545843,779,0.0003753274796,779,0.002810635837,779,0.003651797073,
778,93.19073486,778,0.0006396538811,778,0.0003448862408,778,0.0004162905097,778,0.002702394966,778,0.003644487821,
777,93.21303558,777,0.0008545999881,777,0.0002920919214,777,0.0004079473147,777,0.002830723999,777,0.003713068785,
776,93.2321701,776,0.0007708121557,776,0.0003101728507,776,0.0003865718318,776,0.002760068048,776,0.00366552826,
775,93.27574158,775,0.0005939326365,775,0.0003968060191,775,0.0004406214284,775,0.002829030389,775,0.00374348578,
774,93.29470825,774,0.0008371422882,774,0.0003390313941,774,0.0004300752771,774,0.002787057776,774,0.003708134172,
773,93.33007813,773,0.0006447116612,773,0.000445726153,773,0.0004560913076,773,0.002917444566,773,0.003767533926,
772,93.35191345,772,0.0005054242793,772,0.0003405598691,772,0.0003956141882,772,0.002813553903,772,0.003694558283,
771,93.39311981,771,0.0006955675781,771,0.0004154095368,771,0.0004345320922,771,0.002882550936,771,0.00377322617,
770,93.41516113,770,0.0007234163932,770,0.0003613890149,770,0.0004403104831,770,0.002830646001,770,0.003738289932,
769,93.460495,769,0.0006983346539,769,0.0004423057253,769,0.0004110565642,769,0.002885834314,769,0.003779153572,
768,93.48078918,768,0.0005632261746,768,0.000391183683,768,0.0004236751411,768,0.002816420048,768,0.003742102068,
767,93.52446747,767,0.0005955262459,767,0.00039291961,767,0.0003942409821,767,0.002878590254,767,0.003856191412,
766,93.54129791,766,0.0003878370917,766,0.0004373824049,766,0.0003682027454,766,0.002805685624,766,0.003717011074,
765,93.57143402,765,0.0004566067655,765,0.0003100951435,765,0.0004052526492,765,0.002820224036,765,0.003720718436,
764,93.61743927,764,0.00066291861,764,0.0004469958949,764,0.0003930232488,764,0.002887215465,764,0.003759021638,
763,93.6576004,763,0.0004678609548,763,0.0003244723775,763,0.0004360349849,763,0.002905925969,763,0.00372664514,
762,93.67141724,762,0.0004470280546,762,0.000334912329,762,0.0002852275793,762,0.002765642945,762,0.003666024189,
761,93.72297668,761,0.0004246215103,761,0.0003489794908,761,0.0004361386236,761,0.002891489072,761,0.003747454612,
760,93.76912689,760,8.233235712E-005,760,0.0004145544954,760,0.0004026357201,760,0.002853783546,760,0.003710327204,
759,93.80348206,759,0.0006379911792,759,0.0004402068153,759,0.0004497685295,759,0.00291528157,759,0.003791505005,
758,93.84794617,758,0.0004636773083,758,0.0003582283098,758,0.0004156427458,758,0.002797557041,758,0.003722049994,
757,93.88454437,757,0.0005938445101,757,0.0003850950452,757,0.0003521660401,757,0.002876218874,757,0.003699492663,
756,93.93466949,756,0.0004725304316,756,0.0003363112628,756,0.0004238565161,756,0.002878485946,756,0.003699623048,
755,93.98692322,755,0.0004002086935,755,0.000420254888,755,0.0004373046686,755,0.00288260309,755,0.003729177639,
754,94.01396179,754,0.0003658698406,754,0.0003551971458,754,0.0002893979836,754,0.002771139843,754,0.003651092062,
753,94.05938721,753,0.0004276963882,753,0.0003325030848,753,0.0004040607892,753,0.002735450398,753,0.003642268945,
752,94.10816193,752,0.0004851825361,752,0.000366000575,752,0.0004049935378,752,0.002828795929,752,0.003727428382,
751,94.15034485,751,0.0004129124573,751,0.0003803796426,751,0.0003605858656,751,0.002737065544,751,0.003694714978,
750,94.18863678,750,0.0003595628659,750,0.0003983865317,750,0.000412818481,750,0.002785911318,750,0.003625197336,
749,94.24791718,749,0.0004383139312,749,0.0004041644279,749,0.0004268622433,749,0.002837394364,749,0.003735966282,
748,94.28825378,748,0.0001668056211,748,0.0004783253826,748,0.0004018066102,748,0.002776402282,748,0.003667668905,
747,94.33276367,747,0.000171755426,747,0.0003647828999,747,0.0004182338307,747,0.002840521047,747,0.003666389734,
746,94.38053131,746,0.0002476224909,746,0.0003873750393,746,0.0004008738615,746,0.002826112323,746,0.003717533313,
745,94.41965485,745,0.0003051885578,745,0.0003627102997,745,0.0003463629109,745,0.002823949791,745,0.003673098749,
744,94.46593475,744,0.000131941415,744,0.000373306626,744,0.0003423214948,744,0.002862642985,744,0.003653885331,
743,94.50547028,743,3.78107361E-005,743,0.0003811568895,743,0.0003747315786,743,0.002830072772,743,0.00363391568,
742,94.5451889,742,3.426397598E-005,742,0.0003307414881,742,0.0003283581755,742,0.002813892672,742,0.00370124192,
741,94.58674622,741,0.0001731000521,741,0.0004159018572,741,0.0003412075166,741,0.002900088672,741,0.003674169071,
740,94.65118408,740,0.000255928433,740,0.0004014179576,740,0.0004300752771,740,0.002994850976,740,0.003718081396,
739,94.67750549,739,0.0004083200474,739,0.000366725988,739,0.0003113903804,739,0.003001992824,739,0.003762885928,
738,94.74037933,738,8.885664283E-005,738,0.0004363718326,738,0.0004983836552,738,0.003110934282,738,0.003845901461,
737,94.77224731,737,0.0002847094147,737,0.0004659125116,737,0.0003590573324,737,0.003151034936,737,0.003765888745,
736,94.82034302,736,0.0003124313371,736,0.0004296347615,736,0.000422612793,736,0.003139432054,736,0.003808034817,
735,94.85513306,735,0.0002850202436,735,0.0004532408784,735,0.0004309562501,735,0.003136251122,735,0.003758995561,
734,94.89237976,734,0.0002604289039,734,0.0004029466654,734,0.000361518556,734,0.003238575766,734,0.003746331902,
733,94.94309998,733,0.0003094039275,733,0.0003961323819,733,0.000373669347,733,0.0032265794,733,0.003815059317,
732,94.98317719,732,0.0001088984427,732,0.0004113674804,732,0.000349057198,732,0.003232134273,732,0.003816782963,
731,95.04201508,731,0.0001663513394,731,0.0004136994248,731,0.0005175357801,731,0.003351098392,731,0.0038701382,
730,95.07196045,730,2.540980495E-005,730,0.0004203844292,730,0.0004174305941,730,0.003385064192,730,0.003813570831,
729,95.11750031,729,-2.219259295E-005,729,0.0003845768515,729,0.0003890850348,729,0.003355559194,729,0.003808557056,
728,95.17195129,728,0.0001402810449,728,0.0004335733538,728,0.0004612739722,728,0.003460101318,728,0.003902473021,
727,95.21335602,727,0.000140117656,727,0.0003734361671,727,0.0003700162924,727,0.00338923838,727,0.003850027919,
726,95.26341248,726,3.691916572E-005,726,0.0003905359481,726,0.0004016252351,726,0.003490292002,726,0.003869981505,
725,95.30456543,725,0.0001103935792,725,0.0003975055879,725,0.0004142176476,725,0.003475000849,725,0.003826158121,
724,95.35654449,724,7.665195153E-005,724,0.0003561557096,724,0.0004486283869,724,0.003519545309,724,0.003854049835,
723,95.39455414,723,-0.0001356778666,723,0.0004655497323,723,0.0003732029872,723,0.003448646748,723,0.003818898229,
722,95.43199158,722,0.0001882568467,722,0.0002906672307,722,0.0003469069488,722,0.003437688109,722,0.003785655601,
721,95.48373413,721,1.627529127E-005,721,0.0004019620828,721,0.0003404303279,721,0.003456813749,721,0.003785524983,
720,95.52107239,720,4.035027087E-005,720,0.0003140067565,720,0.0003204570676,720,0.003388612298,720,0.003735496197,
719,95.58337402,719,0.0001032557047,719,0.0004326405178,719,0.0003533577546,719,0.003440923523,719,0.003836473683,
718,95.61755371,718,0.0001205396838,718,0.0003397308756,718,0.000355145341,718,0.003357489593,718,0.003853762522,
717,95.66419983,717,-0.0001428803807,717,0.0003719594097,717,0.0003199389612,717,0.003358298214,717,0.003837883938,
716,95.70843506,716,0.0001864376245,716,0.0003283322731,716,0.0003227367124,716,0.003374394262,716,0.003818140831,
715,95.75335693,715,-4.457384784E-005,715,0.00031980942,715,0.000266655552,715,0.003354333108,715,0.003823181149,
714,95.81867981,714,2.469237552E-005,714,0.0004336769925,714,0.0004000965564,714,0.0034629195,714,0.003969213925,
713,95.86107635,713,0.0001568830339,713,0.0003399640264,713,0.0003622698714,713,0.003428034252,713,0.003888237989,
712,95.89889526,712,4.522108793E-005,712,0.0004002001951,712,0.0003530468675,712,0.003374550724,712,0.003813361982,
711,95.94470978,711,-5.207891809E-005,711,0.0003311818873,711,0.0003679436632,711,0.003334820736,711,0.00390976062,
710,95.9895401,710,2.198335642E-005,710,0.0003414406674,710,0.000313980825,710,0.003423442133,710,0.003819081001,
709,96.0398407,709,0.0002052919008,709,0.0003823486913,709,0.0003639279457,709,0.003421824658,709,0.003876066767,
708,96.08621216,708,-9.851030882E-006,708,0.0003941632458,708,0.0003581764759,708,0.003427903866,708,0.003891920904,
707,96.13075256,707,0.0001748668146,707,0.0003577878815,707,0.0003671923187,707,0.003423807444,707,0.003893618472,
706,96.17063141,706,-0.0001536766795,706,0.0003550157999,706,0.0003784364962,706,0.003373507177,706,0.003876066767,
705,96.22207642,705,-8.50610013E-005,705,0.0003942409821,705,0.0004198662064,705,0.003430095501,705,0.003899364732,
704,96.26583862,704,-4.226429519E-005,704,0.0004162646073,704,0.0004056413018,704,0.003382455558,704,0.003922298085,
703,96.31019592,703,-6.860531721E-005,703,0.0003462333698,703,0.0003736952494,703,0.003409014316,703,0.003906051395,
702,96.36283112,702,-2.769085586E-005,702,0.0003131518897,702,0.0003252754395,702,0.003416684689,702,0.003908950835,
701,96.40962219,701,-3.110292528E-005,701,0.0003957955632,701,0.0004085950786,701,0.003354385262,701,0.003936534282,
700,96.45134735,700,-8.097728278E-005,700,0.0003510520328,700,0.0003655083128,700,0.003341498552,700,0.003935802728,
699,96.48664093,699,-0.0001712153171,699,0.0003787992173,699,0.0003711044264,699,0.003309336025,699,0.003902890952,
698,96.54032135,698,-0.0001609768224,698,0.000355870754,698,0.0004218613612,698,0.003337898757,698,0.003967515659,
697,96.57865906,697,-5.017989315E-005,697,0.0003573992581,697,0.0004237010435,697,0.003288103966,697,0.00392572023,
696,96.62177277,696,2.003934969E-005,696,0.0003289540182,696,0.0003723221307,696,0.003258788027,696,0.003926294856,
695,96.66257477,695,-0.0001038157643,695,0.0002939310798,695,0.000352528732,695,0.003238680074,695,0.003906547558,
694,96.71234131,694,2.898212006E-005,694,0.0003754051868,694,0.0004085173423,694,0.003231090959,694,0.003954689018,
693,96.7519989,693,7.27421866E-005,693,0.0003037745191,693,0.0003211305884,693,0.003176249797,693,0.003957327455,
692,96.80529022,692,-0.0002930104383,692,0.000381312333,692,0.0004254630185,692,0.003215834964,692,0.003971800208,
691,96.84355164,691,5.831365706E-005,691,0.0003455857222,691,0.0003541349724,691,0.003164828755,691,0.003969449084,
690,96.88522339,690,3.263729013E-005,690,0.0003394199884,690,0.0003453525424,690,0.003107936122,690,0.003922872711,
689,96.9319458,689,-0.0001541708625,689,0.0003437722626,689,0.0003987751552,689,0.003238158533,689,0.003990243655,
688,96.97511292,688,9.355761722E-005,688,0.0003252495371,688,0.0003729439049,688,0.003231012728,688,0.003974203486,
687,97.01895142,687,-0.0002261467453,687,0.0003072715772,687,0.0004043199006,687,0.003130801721,687,0.004007042386,
686,97.07149506,686,-0.0001463233784,686,0.0003818564292,686,0.0004448710533,686,0.003212783718,686,0.004021437839,
685,97.10575867,685,-0.0001830907131,685,0.0003409743658,685,0.0003430727811,685,0.003109187586,685,0.003997715656,
684,97.15922546,684,0.0001347427024,684,0.000334549637,684,0.0003623994126,684,0.003152912483,684,0.003996435553,
683,97.20644379,683,-0.0001930276485,683,0.0004259294365,683,0.0004141140089,683,0.0031812042,683,0.004023789428,
682,97.25956726,682,-0.0001597983937,682,0.0003348346218,682,0.0004226386955,682,0.003172703553,682,0.004154600669,
681,97.30479431,681,-0.00019732902,681,0.0004143990227,681,0.000417249219,681,0.003182820976,681,0.004109415691,
680,97.35241699,680,-0.0002764561505,680,0.0003718816733,680,0.0004216022498,680,0.003195833182,680,0.004143728409,
679,97.40359497,679,-6.212259177E-005,679,0.0003430986835,679,0.0004145544954,679,0.003187827766,679,0.004149164539,
678,97.4463501,678,-6.332231715E-005,678,0.0003776592202,678,0.0003864422906,678,0.003204073757,678,0.004181023687,
677,97.49359131,677,-6.239794311E-005,677,0.0003823745938,677,0.0003874009417,677,0.003246686654,677,0.004197699018,
676,97.53817749,676,-0.0002536728571,676,0.0004224054865,676,0.0004220686387,676,0.003317004768,676,0.004238213878,
675,97.57248688,675,-0.0001233600487,675,0.0003364666773,675,0.0003031009983,675,0.003258735873,675,0.004188080318,
674,97.63001251,674,-0.0001877754985,674,0.0004089318973,674,0.0004091910087,674,0.003367220052,674,0.004313947633,
673,97.68449402,673,-5.594773756E-005,673,0.0003897327697,673,0.0003988528915,673,0.003437322797,673,0.004335334059,
672,97.7347641,672,1.234611591E-005,672,0.000420902652,672,0.0004603151756,672,0.003483063774,672,0.004380751401,
671,97.76618195,671,-0.0001160238535,671,0.0003151206474,671,0.0003993710852,671,0.003488804679,671,0.004347753245,
670,97.83397675,670,-0.0001803980995,670,0.0004146063002,670,0.0004530335718,670,0.003577248892,670,0.004449736327,
669,97.86803436,669,-0.0002362444502,669,0.0003989047254,669,0.0004146581341,669,0.003619585186,669,0.004446022678,
668,97.9174881,668,-2.64115788E-005,668,0.000389577297,668,0.0003993710852,668,0.003635821398,668,0.004459072836,
667,97.9801712,667,-6.339710671E-005,667,0.000415953662,667,0.000428313273,667,0.003694532206,667,0.00451711053,
666,98.02102661,666,-9.956651047E-005,666,0.0004177415103,666,0.0004650832852,666,0.003711867612,666,0.004578060005,
665,98.05947876,665,-0.0002508008911,665,0.0003757420054,665,0.0003918573202,665,0.003651535837,665,0.004541096743,
664,98.11464691,664,-0.0002867478761,664,0.0003837477707,664,0.0004896760802,664,0.003756253747,664,0.004556504078,
663,98.16833496,663,-3.23887507E-005,663,0.0004377710866,663,0.0004573610495,663,0.003686439013,663,0.004488522187,
662,98.21458435,662,-0.0002013827761,662,0.0003640574869,662,0.000441528362,662,0.003647672478,662,0.004487633239,
661,98.26316071,661,-0.0001874602749,661,0.000388074579,661,0.0004492762091,661,0.003653859254,661,0.004471181892,
660,98.31145477,660,-0.0003170290147,660,0.0003743688576,660,0.0004237787798,660,0.003603897756,660,0.004462525249,
659,98.35669708,659,-0.0001760703017,659,0.0004199439427,659,0.0004461926001,659,0.003582286183,659,0.004436686635,
658,98.40309906,658,1.352454728E-005,658,0.0003937746224,658,0.0004075845645,658,0.00352959265,658,0.004371128976,
657,98.45806122,657,-0.0002660020546,657,0.0003959769092,657,0.0004468403931,657,0.003486142959,657,0.004376175348,
656,98.48488617,656,-0.0002908783208,656,0.000440828735,656,0.0004569205339,656,0.003477192717,656,0.004363180138,
655,98.54170227,655,-0.0002196943096,655,0.0003958473681,655,0.0004604447458,655,0.003454074031,655,0.004352067597,
654,98.58574677,654,-4.127744978E-005,654,0.00046288062,654,0.0004491207364,654,0.003447289811,654,0.004298260901,
653,98.61644745,653,-6.934379053E-005,653,0.0004055894678,653,0.0004915160825,653,0.003372072475,653,0.004309293814,
652,98.66093445,652,-0.0001662032155,652,0.0004613258061,652,0.0004945481778,652,0.003441497451,652,0.004315254744,
651,98.70685577,651,-0.0001324294717,651,0.0004221463751,651,0.000497295172,651,0.003414597595,651,0.004298287444,
650,98.74300385,650,-0.0003234394535,650,0.0004202289565,650,0.0004524893884,650,0.003420024412,650,0.004284143914,
649,98.77600861,649,-0.0002393235918,649,0.0004045012465,649,0.0004731425142,649,0.003357280977,649,0.004288928118,
648,98.80691528,648,-0.0003745873692,648,0.0004161609395,648,0.0004780144081,648,0.003371498547,648,0.004272118211,
647,98.8371048,647,-0.0002032734337,647,0.0004249966296,647,0.0004841820919,647,0.003395264968,647,0.004282156937,
646,98.87794495,646,-0.0003161077911,646,0.0004262144503,646,0.000486929086,646,0.003411283949,646,0.004308561794,
645,98.90248108,645,-0.000406420615,645,0.0004541219096,645,0.0004848558747,645,0.003421746194,645,0.004278601613,
644,98.93460846,644,-0.0001160812171,644,0.0004251521023,644,0.0005003532278,644,0.003435835475,644,0.004339229781,
643,98.95707703,643,-0.0003271142486,643,0.0004397403973,643,0.0004817979352,643,0.003450003453,643,0.004293032456,
642,98.98964691,642,-0.000480601564,642,0.0004588640295,642,0.000531505153,642,0.003419319866,642,0.004297241569,
641,99.01880646,641,-0.000173690918,641,0.0004210062907,641,0.0005093979416,641,0.003440036206,641,0.004317790736,
640,99.04219818,640,-0.0001291131484,640,0.0004355685669,640,0.0005324900267,640,0.003481002292,640,0.004364513792,
639,99.05410767,639,-0.000392996124,639,0.0003926604986,639,0.000479491544,639,0.003450264456,639,0.004322679713,
638,99.08428955,638,-0.0003468856739,638,0.0004038276093,638,0.0005145294126,638,0.003507593181,638,0.004357375205,
637,99.10769653,637,-0.0001641731214,637,0.0004331587697,637,0.0005451639881,637,0.003535699565,637,0.004375208169,
636,99.12901306,636,-0.000229807687,636,0.0004691258364,636,0.0004956107005,636,0.003538544057,636,0.004351753742,
635,99.14984131,635,-0.0004349177179,635,0.000412170717,635,0.0005401876988,635,0.003507984802,635,0.004340798594,
634,99.16414642,634,-0.0001211353592,634,0.0004427203094,634,0.000493200554,634,0.003531367285,634,0.004343543667,
633,99.16337585,633,-0.0002378748904,633,0.0003842659353,633,0.0004896501778,633,0.003548539709,633,0.004342811648,
632,99.17337036,632,-0.0003226635163,632,0.000431008084,632,0.0005160585279,632,0.003519519232,632,0.004365454894,
631,99.18336487,631,-0.0002478973474,631,0.0003867791092,631,0.000495532935,631,0.003528000787,631,0.004306653049,
630,99.19512177,630,-0.0004775618436,630,0.0003866495681,630,0.0005292244023,630,0.003509889822,630,0.00430518901,
629,99.1860199,629,-0.0003764715511,629,0.0004024284426,629,0.0005263735075,629,0.00353880506,629,0.004301162902,
628,99.18287659,628,-0.0001603670244,628,0.000402687554,628,0.0005070396001,628,0.003515004646,628,0.004343491513,
627,99.1971283,627,-0.000123436068,627,0.0004110047303,627,0.0005147108459,627,0.003564146813,627,0.00428022258,
626,99.20606232,626,-1.695769924E-006,626,0.0003517774167,626,0.0005097867106,626,0.003562476486,626,0.004287987016,
625,99.2190094,625,-9.40256723E-005,625,0.0004251521023,625,0.0004788695951,625,0.003595440881,625,0.004285660107,
624,99.23116302,624,-0.0002333995508,624,0.0003877636627,624,0.0005193758989,624,0.003632140579,624,0.004319516011,
623,99.23799133,623,-0.0004958966747,623,0.0004417097371,623,0.0005029966705,623,0.003589463886,623,0.004273660947,
622,99.24229431,622,-0.0002544942836,622,0.0003768819734,622,0.0005275657168,622,0.003660254879,622,0.004249401856,
621,99.2537384,621,-0.0003220286453,621,0.0004593045451,621,0.0005321531207,621,0.003644957673,621,0.00427826168,
620,99.26511383,620,-0.0002404595289,620,0.0003894736583,620,0.0005320235505,620,0.003691477701,620,0.00429941155,
619,99.26807404,619,-0.0001612706255,619,0.0004345320922,619,0.0005360926152,619,0.003681687638,619,0.004274419043,
618,99.27798462,618,-0.0003447586205,618,0.0004056672042,618,0.0005345116369,618,0.003721188521,618,0.00429935893,
617,99.2806778,617,-0.0001797781588,617,0.0004054599267,617,0.0005126634496,617,0.003674482461,617,0.00426176656,
616,99.2935257,616,-0.0002305120724,616,0.0004137771612,616,0.000521190057,616,0.003710248973,616,0.004305032082,
615,99.2928772,615,-0.0003149733238,615,0.0004022211651,615,0.0005216047284,615,0.003691529855,615,0.004289058503,
614,99.33233643,614,-7.621775148E-005,614,0.0004396885925,614,0.0005450862227,614,0.003735313425,614,0.004295359366,
613,99.3547821,613,-0.0002948432812,613,0.0004333919787,613,0.0005832917523,613,0.003763225395,613,0.004303332884,
612,99.37875366,612,-5.655535278E-005,612,0.0004687111941,612,0.0005575791583,612,0.003748551244,612,0.004294522572,
611,99.40110779,611,-0.0003581104102,611,0.0003900954907,611,0.0005513844662,611,0.003767298767,611,0.004304300062,
610,99.42938995,610,-0.000255880208,610,0.0005125597818,610,0.000540757901,610,0.003781112144,610,0.004298862536,
609,99.44802856,609,-9.887428314E-005,609,0.0003997079039,609,0.0005773041048,609,0.003809183603,609,0.004251127131,
608,99.49124146,608,-5.086645979E-005,608,0.0004805540375,608,0.0006033289828,608,0.003846058156,608,0.004312770907,
607,99.51030731,607,-0.0002004965791,607,0.0004159277596,607,0.000594774785,607,0.003827072214,607,0.004252695478,
606,99.55194855,606,-4.002586138E-005,606,0.0004797765869,606,0.0005828252179,606,0.003905084915,606,0.00429418264,
605,99.57809448,605,-0.0002326610702,605,0.0004358017759,605,0.0005922345445,605,0.003901349846,605,0.004295698833,
604,99.60206604,604,-0.0002968649496,604,0.0004455706803,604,0.0005720941117,604,0.003891424509,604,0.004299881868,
603,99.64655304,603,3.135027146E-005,603,0.0004743086465,603,0.0005938934628,603,0.003953696694,603,0.004346054047,
602,99.67430115,602,-0.0003158414329,602,0.0004292201775,602,0.0005934528308,602,0.003924649209,602,0.004335517064,
601,99.69145966,601,-0.0002142023004,601,0.0004696700198,601,0.0005812181043,601,0.003972609993,601,0.0043116468,
600,99.716362,600,-0.0002606717171,600,0.0003860536672,600,0.0005674285349,600,0.003967359196,600,0.004315437749,
599,99.7430954,599,-0.0003419145069,599,0.0004653423966,599,0.000596615253,599,0.003985228017,599,0.004329320509,
598,99.76701355,598,-0.0003162362555,598,0.0004074550234,598,0.0006316626095,598,0.00406049937,598,0.00434302073,
597,99.79406738,597,-0.0002444415586,597,0.0004838192835,597,0.0006433802191,597,0.004078162834,597,0.004389772657,
596,99.80439758,596,-0.0002887551382,596,0.000460107869,596,0.0006189601845,596,0.00407847669,596,0.004319777712,
595,99.80794525,595,-0.0002810433216,595,0.0004594341153,595,0.0006250780425,595,0.004123605788,595,0.00435008062,
594,99.82034302,594,-0.0004937849008,594,0.0004861775378,594,0.0006236522458,594,0.004150000867,594,0.004377901088,
593,99.80879211,593,-0.0003659165814,593,0.0004383670748,593,0.0005829806905,593,0.004102098756,593,0.004324875772,
592,99.80456543,592,-0.0003822336439,592,0.0004638135142,592,0.0005847433349,592,0.004168321379,592,0.004375025164,
591,99.79663849,591,-0.0005113680381,591,0.0004707324842,591,0.0006075542769,591,0.004144042265,591,0.004392283037,
590,99.78450775,590,-0.0002179120929,590,0.0004357758735,590,0.000620541512,590,0.004201358184,590,0.004403291736,
589,99.78392792,589,-0.0004756862472,589,0.00043621636,589,0.000618830556,589,0.004172581714,589,0.004378763959,
588,99.76049042,588,-0.0004203883291,588,0.0003491349344,588,0.00053736259,588,0.004138423596,588,0.004334575962,
587,99.74881744,587,-0.000251737918,587,0.0004699550627,587,0.0005598859279,587,0.004166126251,587,0.004385432228,
586,99.76180267,586,-0.00047422442,586,0.0004519452341,586,0.0006093428819,586,0.004188263323,586,0.004365716595,
585,99.75075531,585,-0.0002240160247,585,0.0004302048183,585,0.0005534061347,585,0.004185623489,585,0.004352459684,
584,99.73478699,584,-0.0002464994905,584,0.0003797319077,584,0.0005909902975,584,0.004194170237,584,0.004362761509,
583,99.73551941,583,-0.0002559487766,583,0.0003572956484,583,0.0005319198826,583,0.004167458974,583,0.004365141038,
582,99.72441864,582,-0.0003999446053,582,0.000343927677,582,0.0005042147241,582,0.004196417984,582,0.004306365736,
581,99.71242523,581,-0.0003708368167,581,0.0003255603951,581,0.0004945222172,581,0.00420198543,581,0.004340589512,
580,99.71868134,580,-0.0003419370914,580,0.0004012366117,580,0.0005092683714,580,0.004224882461,580,0.004371494986,
579,99.7116394,579,-0.0003342246055,579,0.0003654306056,579,0.0005496219965,579,0.004217433278,579,0.004366474692,
578,99.70704651,578,-0.000236095846,578,0.0003033600515,578,0.0004708620545,578,0.004177991766,578,0.004301136825,
577,99.7181778,577,-0.000358370482,577,0.0003467774077,577,0.0005330084241,577,0.004301345907,577,0.004425022751,
576,99.70545197,576,-1.43975185E-005,576,0.0002742707729,576,0.0004951701267,576,0.004178854171,576,0.00430168584,
575,99.72335815,575,-0.0004407877859,575,0.0003140585613,575,0.0005086204619,575,0.004219942261,575,0.004390897229,
574,99.71813202,574,-0.0002241216571,574,0.0002557768894,574,0.0004869549884,574,0.004235939588,574,0.004341347609,
573,99.72432709,573,-0.0002160630829,573,0.0002949672053,573,0.0004789473314,573,0.004238998052,573,0.004377979785,
572,99.69993591,572,-0.0002858944063,572,0.0001998856605,572,0.0004149431479,572,0.004205566365,572,0.004301842768,
571,99.7230072,571,-0.0003924806952,571,0.0002482138225,571,0.0004785586207,571,0.004302992951,571,0.004423584789,
570,99.73236084,570,-0.0002467855229,570,0.0002877142688,570,0.0004567391297,570,0.004291699268,570,0.004342393484,
569,99.76506042,569,-6.946688518E-005,569,0.0002050393814,569,0.0004229755432,569,0.004300875589,569,0.004288326483,
568,99.76630402,568,-0.0004823081836,568,0.0001579072268,568,0.0004010552366,568,0.004289294127,568,0.004269190598,
567,99.78852081,567,-0.0002098385885,567,0.0002062824933,567,0.0004041385255,567,0.004393537994,567,0.004290104378,
566,99.79088593,566,-0.0002007963049,566,0.0002001187531,566,0.0004825235519,566,0.004393171985,566,0.004312117118,
565,99.7926178,565,-0.0004583060218,565,0.0001859010372,565,0.000407429121,565,0.004423061851,565,0.004333190154,
564,99.80641937,564,-0.0002422350663,564,0.0001784945343,564,0.0004182078992,564,0.004418354481,564,0.004307672847,
563,99.8168869,563,-0.0002419830416,563,0.0001977620414,563,0.0003886963823,563,0.004407606553,563,0.004291228484,
562,99.84183502,562,-8.01929491E-005,562,0.0001956384367,562,0.0003960287431,562,0.004462185316,562,0.004302313551,
561,99.85429382,561,-0.0001383405179,561,0.0001187810631,561,0.0003763897112,561,0.004506125115,561,0.00434511248,
560,99.8711853,560,-4.560012894E-005,560,0.0001602378179,560,0.0003664151009,560,0.004499036819,560,0.004376254044,
559,99.88299561,559,-0.000148370731,559,8.98853832E-005,559,0.000358850084,559,0.004476988222,559,0.004325320479,
558,99.90638733,558,-0.0001457041071,558,0.0001325046032,558,0.0003928159713,558,0.004587032832,558,0.004424735438,
557,99.93585205,557,-0.0001079491631,557,0.0002023977722,557,0.0004522561794,557,0.004680620041,557,0.004512062296,
556,99.94117737,556,-0.000219750058,556,0.0001200757179,556,0.0004236751411,556,0.004663926549,556,0.00443815114,
555,99.96053314,555,-0.0001453326258,555,0.0001739626605,555,0.0004242192954,555,0.004694619682,555,0.004479028285,
554,99.97542572,554,-0.0001507890411,554,0.0001522361708,554,0.000426318089,554,0.004687868524,554,0.004550566431,
553,99.97682953,553,-0.0001483072847,553,7.727649063E-005,553,0.0003184623783,553,0.004730784334,553,0.00448849611,
552,100.0091934,552,-6.752139598E-005,552,0.000181135998,552,0.0004220427363,552,0.004852436949,552,0.004550330807,
551,100.0247803,551,-0.0001177988888,551,0.0001608334132,551,0.0003831259673,551,0.004819952883,551,0.004550069105,
550,100.04879,550,-0.0001949521247,550,0.0001894230518,550,0.0004374601413,550,0.004877593834,550,0.004636375234,
549,100.0621185,549,-0.0004188127059,549,0.0002113585797,549,0.0004321740998,549,0.004880630411,549,0.004648855422,
548,100.0675888,548,-0.0003700040106,548,0.0001433801517,548,0.0003646533587,548,0.004896049853,548,0.004595953971,
547,100.0897369,547,-0.0003104305652,547,0.0001346537902,547,0.0003347827878,547,0.00493487576,547,0.004640116356,
546,100.1036072,546,-0.00021889864,546,0.000158865354,546,0.0003801464627,546,0.004935425706,546,0.004665705841,
545,100.1029053,545,-0.0001171331169,545,0.0001075436303,545,0.00037999099,545,0.00501489453,545,0.004682347178,
544,100.1277542,544,-0.0001379448222,544,0.0001164506975,544,0.0004124038969,544,0.00505011715,544,0.00470979698,
543,100.1491089,543,-0.0002493114152,543,0.000138356656,543,0.0004354908306,543,0.005058942828,543,0.004740833305,
542,100.1662979,542,-0.0001062511292,542,0.0001570526802,542,0.0004042680666,542,0.00508882571,542,0.004756771494,
541,100.1845856,541,-0.0001157770239,541,0.0001054722379,541,0.0003960805479,541,0.005137962755,541,0.004799406044,
540,100.2070694,540,-0.0001984205446,540,0.0001275847899,540,0.0004171973851,540,0.005204841495,540,0.00479699811,
539,100.2232895,539,-4.699999045E-005,539,0.0001673591469,539,0.0003820637066,539,0.00522676995,539,0.004830108956,
538,100.2385864,538,-6.82160462E-005,538,0.0001072847008,538,0.0003940078022,538,0.005264891777,538,0.004925790709,
537,100.258812,537,-0.0001488226553,537,0.0001885684323,537,0.0004000188201,537,0.005344892852,537,0.004920423497,
536,100.2770157,536,-0.0002117969125,536,0.0001028571278,536,0.0004098128702,536,0.005434738006,536,0.004943725187,
535,100.2876663,535,-0.0001092070306,535,0.000122198966,535,0.0004187002196,535,0.005410282873,535,0.004935949109,
534,100.3179321,534,-1.395342042E-005,534,0.0001411791309,534,0.0004333142424,534,0.005526489578,534,0.005059807096,
533,100.3394394,533,-0.000149938438,533,0.0001417488093,533,0.0004356981372,533,0.005617893301,533,0.005080837291,
532,100.3565445,532,-5.763038644E-005,532,0.0001495689939,532,0.0004348948423,532,0.005648706108,532,0.005105719436,
531,100.3703003,531,-0.0002057194943,531,0.0001286723273,531,0.0004378747253,531,0.005692582577,531,0.005135500804,
530,100.3887558,530,-0.0001434512233,530,0.0001249695488,530,0.0004187520535,530,0.005719938781,530,0.005131964572,
529,100.4117508,529,-0.0001134268459,529,0.0001449079427,529,0.0004083359672,529,0.005826337263,529,0.005254148971,
528,100.4233856,528,-0.0002589102369,528,0.0001500868966,528,0.0004011070414,528,0.005841501523,528,0.005273380782,
527,100.448761,527,-8.139795682E-005,527,0.000133721609,527,0.0004408028035,527,0.005953204818,527,0.005346543621,
526,100.4526978,526,-6.625311653E-005,526,0.0001262901205,526,0.0003965210344,526,0.005920848344,526,0.005330741405,
525,100.4790573,525,-9.66479347E-005,525,0.0001118158907,525,0.0004540700756,525,0.006033306476,525,0.005384676158,
524,100.5111694,524,-0.0001647306635,524,0.0001787794026,524,0.0004896501778,524,0.006069242023,524,0.005468054675,
523,100.5472794,523,-5.229900489E-005,523,0.0002181181626,523,0.0004916456528,523,0.006184338126,523,0.005522189662,
522,100.5616302,522,-3.651403676E-005,522,0.0001235712989,522,0.0004569982702,522,0.006222334225,522,0.005541617051,
521,100.5780945,521,-7.683048898E-005,521,0.0001677475811,521,0.00043194092,521,0.006285545416,521,0.005577380303,
520,100.5859375,520,-0.0002717480529,520,8.333492588E-005,520,0.0004320963926,520,0.006268159486,520,0.005586374085,
519,100.6123886,519,-0.0001539541263,519,0.0001444159425,519,0.0004299716093,519,0.006406478584,519,0.005678079091,
518,100.6176147,518,-5.278735625E-005,518,0.0001020544805,518,0.0003902509343,518,0.006405217573,518,0.005668585189,
517,100.6313171,517,-7.992955943E-005,517,0.000120101613,517,0.000375353382,517,0.006507579703,517,0.005747585092,
516,100.6446381,516,-0.0001670176134,516,6.179420598E-005,516,0.0003882300225,516,0.006576220039,516,0.005809415597,
515,100.6596451,515,-4.712650116E-005,515,2.834605948E-005,515,0.0003827632463,515,0.006615879945,515,0.0058375136,
514,100.6961975,514,1.497186895E-005,514,0.0002095197851,514,0.0004655497323,514,0.006824646145,514,0.005986220203,
513,100.7050629,513,-0.0001035829991,513,0.0001076730914,513,0.0004275359388,513,0.006855834275,513,0.006018896587,
512,100.7159576,512,-0.0002092300274,512,0.0001274035312,512,0.0004038016777,512,0.006922688335,512,0.0060416013,
511,100.7252579,511,-6.908524665E-005,511,9.762695845E-005,511,0.0004128702858,511,0.007024883293,511,0.006035012659,
510,100.7527847,510,-0.0002050899348,510,0.0001390816906,510,0.0004884839873,510,0.00713049667,510,0.006168977823,
509,100.7634277,509,-0.0001167113151,509,0.0001001384662,509,0.0004569982702,509,0.007213053294,509,0.006188303232,
508,100.7734451,508,-0.000175850204,508,9.480476001E-005,508,0.0004038794141,508,0.00726635335,508,0.006251194049,
507,100.7964249,507,-0.0001989704033,507,0.0001171239128,507,0.0004502868105,507,0.007419894449,507,0.00634561386,
506,100.8107529,506,-0.0002207970538,506,0.0001049802886,506,0.0004335992562,506,0.007499292959,506,0.006375112571,
505,100.8181,505,-0.0001412191486,505,0.000135119888,505,0.0004141917452,505,0.007551996037,505,0.006471713539,
504,100.8429565,504,-0.0002230092214,504,0.0001373985724,504,0.0004313708632,504,0.007711329963,504,0.006564498879,
503,100.8611908,503,-0.0001493065502,503,0.0002152174857,503,0.000465705205,503,0.00786879845,503,0.006626472343,
502,100.8772964,502,-4.037926556E-005,502,0.000122613259,502,0.000451245578,502,0.007966997102,502,0.0066660312,
501,100.8916473,501,-0.000175236084,501,0.0001254874223,501,0.0004265772004,501,0.008044517599,501,0.006769795902,
500,100.9084854,500,-0.0002161747543,500,0.0001438462641,500,0.0004543551186,500,0.008198861964,500,0.006826565601,
499,100.925972,499,-1.958848043E-005,499,7.227963943E-005,499,0.0004317854473,499,0.008300672285,499,0.006918269675,
498,100.9426956,498,7.014480616E-006,498,0.0001767853682,498,0.0004310339864,498,0.0084171528,498,0.006982371677,
497,100.9563293,497,-0.0001132458929,497,7.460977213E-005,497,0.0004280023568,497,0.008509589359,497,0.007053691428,
496,100.9672012,496,1.564675586E-005,496,0.0001379423484,496,0.0003912095854,496,0.008597161621,496,0.007092474028,
495,100.9946594,495,2.578441126E-005,495,0.0001253579539,495,0.0004672082141,495,0.0088164974,495,0.007211895194,
494,100.9993668,494,-0.0001123580005,494,0.000120619472,494,0.000427250925,494,0.008855544031,494,0.007261773106,
493,101.0290604,493,-0.000173031076,493,0.0001683172886,493,0.0004333919787,493,0.009065680206,493,0.007406623568,
492,101.0386505,492,-9.024015526E-006,492,0.0001130069504,492,0.0004476436879,492,0.009143661708,492,0.00746676838,
491,101.0674591,491,-1.184675625E-006,491,0.0002106334287,491,0.0004599264648,491,0.009354916401,491,0.007621855475,
490,101.0740662,490,-7.1790113E-005,490,0.0001210078699,490,0.0004088800924,490,0.009471997619,490,0.007652389817,
489,101.0963058,489,-0.0001763328037,489,0.0001792196417,489,0.0004487320257,489,0.009582071565,489,0.007781715598,
488,101.1152267,488,-0.0001006226084,488,6.927637878E-005,488,0.0004997571814,488,0.009761477821,488,0.007893417962,
487,101.1334763,487,-0.0004678652331,487,0.0001321420859,487,0.0004479546624,487,0.009918446653,487,0.008021207526,
486,101.1429214,486,-0.0002133530797,486,8.809888823E-005,486,0.0004148654116,486,0.01007647905,486,0.008092566393,
485,101.1585083,485,-0.0001307028433,485,0.0001373985724,485,0.0004311376542,485,0.01022110507,485,0.0082379058,
484,101.1790619,484,-0.0002381634404,484,0.0001099775182,484,0.000470602914,484,0.01038667001,484,0.008321015164,
483,101.204834,483,-0.0001415830047,483,0.0001297080744,483,0.0004323295725,483,0.01066476945,483,0.008508454077,
482,101.2196045,482,-0.0001779161394,482,0.0001233382645,482,0.0004767964128,482,0.01079435926,482,0.008584328927,
481,101.2396317,481,-0.000173982975,481,0.0001086311095,481,0.000474567787,481,0.01101411786,481,0.00872579217,
480,101.2566833,480,-6.996040611E-005,480,0.0001571044704,480,0.000475604349,480,0.01119209826,480,0.008847433142,
479,101.2622452,479,-2.211666651E-005,479,3.732916957E-005,479,0.0004041385255,479,0.01138070133,479,0.008909231052,
478,101.3018875,478,0.0002017792722,478,0.0001781837782,478,0.0005230301758,478,0.01170993596,478,0.009181546979,
477,101.3141022,477,-0.0001729646756,477,0.0001480153005,477,0.0004957920755,477,0.01187862456,477,0.00926732365,
476,101.3369675,476,-8.348291885E-005,476,0.000150216365,476,0.0004957920755,476,0.01208730135,476,0.009468135424,
475,101.360405,475,1.921387366E-006,475,0.0001303295139,475,0.0004811500548,475,0.01239832025,475,0.009639898315,
474,101.3794098,474,3.495503188E-005,474,0.000151433429,474,0.0004953774624,474,0.0126640657,474,0.009807440452,
473,101.3981323,473,-5.895131471E-005,473,0.0001780284074,473,0.0005101236166,473,0.01291677263,473,0.009974410757,
472,101.4132614,472,3.148225733E-005,472,0.0001028312399,472,0.000505121774,472,0.01322075445,472,0.01014743466,
471,101.4383926,471,-0.0002220166789,471,0.0001944989344,471,0.0005531469942,471,0.01353701949,471,0.01039748732,
470,101.4507294,470,-2.8164166E-005,470,6.808543549E-005,470,0.0005212419201,470,0.01378080249,470,0.01049572974,
469,101.4771957,469,-0.0001898774062,469,0.0001526763954,469,0.0005500626285,469,0.0141686108,469,0.01083958149,
468,101.4924393,468,-0.0002258752647,468,0.0001174346253,468,0.000525725598,468,0.01444729697,468,0.01098324079,
467,101.5176926,467,-0.0002116182877,467,0.0001378646557,467,0.0005706426455,467,0.01479169354,467,0.0112730395,
466,101.5412827,466,-0.0001674784871,466,0.0001094855616,466,0.0005832139868,466,0.01521777641,466,0.0115654245,
465,101.5522842,465,-0.0001843407226,465,7.341881428E-005,465,0.0005596267292,465,0.01555441506,465,0.01173929591,
464,101.5771255,464,-0.0002132276422,464,0.0001246847241,464,0.0005667287041,464,0.01597775519,464,0.01203388534,
463,101.6071777,463,-0.000165458463,463,0.000128620537,463,0.0006168604596,463,0.01646834239,463,0.01234630402,
462,101.6216888,462,-9.947385843E-005,462,0.0001619469258,462,0.0006009182543,462,0.01685853302,462,0.01263738796,
461,101.6428604,461,-0.0002001645043,461,0.0001009152256,461,0.0006665831315,461,0.01735895313,461,0.01289837249,
460,101.6514893,460,-9.886590851E-005,460,0.0001088123536,460,0.0006267371355,460,0.01773265935,460,0.01326300018,
459,101.6815414,459,-0.000142422432,459,9.314770432E-005,459,0.0006506909849,459,0.01826011389,459,0.01358081866,
458,101.7050781,458,-0.0001236575044,458,0.000151873639,458,0.0006565499934,458,0.01879602298,458,0.01395826321,
457,101.7178879,457,5.269875328E-005,457,7.458387699E-005,457,0.0006738423835,457,0.01928615384,457,0.0143083455,
456,101.7317886,456,-0.0001452690485,456,9.242274245E-005,456,0.0006983174244,456,0.01980254799,456,0.01461782772,
455,101.7667084,455,-7.57751186E-005,455,0.0001144310518,455,0.0007524057874,455,0.02045151778,455,0.01508174185,
454,101.7698669,454,-0.0001897601323,454,4.859068213E-005,454,0.0006935208221,454,0.02095628902,454,0.01541387569,
453,101.802002,453,6.816517271E-005,453,8.957468526E-005,453,0.0007978908834,453,0.02161950245,453,0.01583235338,
452,101.8305435,452,-0.0001034610614,452,0.0001261088619,452,0.0008626258932,452,0.02223937027,452,0.01627010107,
451,101.8394318,451,-0.0002815420739,451,0.0001090194928,451,0.0008309574332,451,0.02284069918,451,0.01671232469,
450,101.8599243,450,-0.0001521171362,450,6.837022374E-005,450,0.0008734160219,450,0.02347226068,450,0.01710798405,
449,101.8784256,449,-0.0001148570955,449,0.0001289830398,449,0.0008628074429,449,0.02412693389,449,0.01753979549,
448,101.9054642,448,-3.900448064E-005,448,0.0001092525272,448,0.0009526900249,448,0.02477059141,448,0.0180162061,
447,101.9221344,447,-0.0001943755778,447,0.0001685762545,447,0.0009234793833,447,0.02545533143,447,0.01842872053,
446,101.9502258,446,-8.341250214E-005,446,9.278522339E-005,446,0.001009326894,446,0.02610107325,446,0.01894493401,
445,101.9734497,445,-0.0001324924087,445,0.0002065932786,445,0.00103984063,445,0.02683753334,445,0.01942508109,
444,101.9937363,444,-0.0004035006568,444,0.0001214739532,444,0.001063843258,444,0.02752606757,444,0.01991185732,
443,102.0007629,443,-0.0002772374137,443,9.182723443E-005,443,0.0009913984686,443,0.02814686298,443,0.02032156475,
442,102.0250473,442,-0.0001780948078,442,0.0001098739449,442,0.001024401863,442,0.02889792621,442,0.0207992997,
441,102.0426483,441,-0.0003146551608,441,0.0001511226874,441,0.001084499527,441,0.02957967855,441,0.02130349725,
440,102.0580902,440,-0.000308363291,440,0.000154748006,440,0.001055150293,440,0.03033505753,440,0.02181595564,
439,102.0765915,439,-6.504382327E-005,439,0.0001053945671,439,0.00107178383,439,0.03105343506,439,0.02230670117,
438,102.0694885,438,-0.0002728364198,438,0.0001155185528,438,0.001086160424,438,0.03187926859,438,0.02286086231,
437,102.0793533,437,-0.0001324876648,437,9.723858238E-005,437,0.00107149838,437,0.03266556561,437,0.02342567593,
436,102.0907135,436,-0.0001479214261,436,0.0001298893185,436,0.0010596395,436,0.03348440677,436,0.02392486483,
435,102.1009293,435,-0.0002064291766,435,1.692975275E-005,435,0.001078660716,435,0.03431353346,435,0.0244612135,
434,102.1036987,434,-0.0006202104269,434,0.0001540229277,434,0.001104196534,434,0.03526638821,434,0.02517860197,
433,102.1054611,433,-0.0001815724536,433,8.646774222E-005,433,0.001127865282,433,0.0361540392,433,0.0257335566,
432,102.1274414,432,-0.0002517099783,432,0.0001504235261,432,0.001145358197,432,0.0371045433,432,0.0264227353,
431,102.128746,431,-0.0002847587457,431,8.470714965E-005,431,0.001113461447,431,0.03806883097,431,0.02705757506,
430,102.1181335,430,-0.0002329925046,430,7.950308645E-005,430,0.001114032464,430,0.03912519291,430,0.02780115232,
429,102.1287537,429,-0.0001171439944,429,0.0001202569692,429,0.001128021046,429,0.04023606703,429,0.02851042897,
428,102.1398087,428,-5.889849126E-005,428,7.719881978E-005,428,0.001137234503,428,0.04127050564,428,0.02928795666,
427,102.1679153,427,-0.0001808198867,427,0.0001586840808,427,0.00121806236,427,0.04245276377,427,0.03007811494,
426,102.1456833,426,-0.0003381074639,426,6.816310633E-005,426,0.001158569125,426,0.04357050359,426,0.03083908744,
425,102.1560898,425,-0.0002340394276,425,0.0001062490119,425,0.001217439305,425,0.04480502382,425,0.03166707233,
424,102.1626587,424,-0.0002209039667,424,4.129008084E-005,424,0.001181903412,424,0.04593203589,424,0.0324058719,
423,102.1562195,423,-0.0001848751272,423,0.0001121783862,423,0.001171391108,423,0.04718907923,423,0.03323506564,
422,102.1628036,422,-0.000221296199,422,3.546522566E-005,422,0.001207211753,422,0.04835418984,422,0.03412307799,
421,102.1678238,421,-0.0003392159124,421,0.0001882835641,421,0.001330477884,421,0.04969300702,421,0.03499326855,
420,102.146019,420,-0.000325163448,420,8.105653251E-005,420,0.001214921358,420,0.05077756569,420,0.03571378067,
419,102.142395,419,-0.0003081517643,419,7.820855535E-005,419,0.00128231477,419,0.0519936122,419,0.03652887791,
418,102.1506424,418,-0.0001439530315,418,8.535442612E-005,418,0.001281509991,418,0.05318873003,418,0.03733317927,
417,102.1578827,417,-0.0001180997715,417,9.705733828E-005,417,0.001312873792,417,0.05440771207,417,0.03808216751,
416,102.1435165,416,-0.0001545592677,416,8.683021588E-005,416,0.001314639347,416,0.05542956293,416,0.03880570456,
415,102.1457062,415,-0.0003233794123,415,0.0001430435223,415,0.001350757317,415,0.05655606836,415,0.03955117241,
414,102.1366806,414,-0.0004289154604,414,6.236377521E-005,414,0.001372284256,414,0.05760253221,414,0.04025702551,
413,102.1360397,413,-0.0001795602147,413,8.294656436E-005,413,0.001333437976,413,0.05865128338,413,0.04098214954,
412,102.1205292,412,-0.0002229832462,412,9.19825834E-005,412,0.001326790894,412,0.05963797867,412,0.04161753878,
411,102.1126633,411,-0.0001325156336,411,8.747749962E-005,411,0.001335177687,411,0.0606004335,411,0.04227825254,
410,102.0952835,410,-0.0003929638769,410,8.884973067E-005,410,0.001341695082,410,0.0615718253,410,0.04297894984,
409,102.1094818,409,-0.0002482102136,409,9.726447024E-005,409,0.001432378078,409,0.06263855845,409,0.04367156699,
408,102.0946884,408,-0.0003090984828,408,1.617903217E-005,408,0.00139786338,408,0.06351129711,408,0.04426839203,
407,102.0819931,407,-0.0004907898838,407,4.214440196E-005,407,0.001398356748,407,0.06450115144,407,0.04498919472,
406,102.0797272,406,-9.427972691E-005,406,9.105049685E-005,406,0.001420872868,406,0.06557941437,406,0.04566228017,
405,102.0669556,405,-6.979740283E-005,405,4.488858758E-005,405,0.00149079191,405,0.06657532603,405,0.04638249427,
404,102.0605545,404,-0.0002804838005,404,0.0001093819883,404,0.001506299246,404,0.0676060468,404,0.04712349176,
403,102.066246,403,-8.034424536E-005,403,5.941235941E-005,403,0.001536458265,403,0.06867438555,403,0.04779472575,
402,102.0445023,402,-0.0002821777307,402,0.0001305107726,402,0.001539783436,402,0.0697953254,402,0.0485859029,
401,102.0539246,401,-0.0002006444411,401,6.883624155E-005,401,0.001624453696,401,0.07094931602,401,0.04932757467,
400,102.0459518,400,-1.241100335E-006,400,0.0001163989073,400,0.001572049223,400,0.07197321206,400,0.05007675663,
399,102.026535,399,-0.0003636581532,399,-7.092697615E-006,399,0.001604421297,399,0.07315004617,399,0.05085831508,
398,102.0380707,398,-9.499182488E-005,398,0.0001838033786,398,0.001681516063,398,0.07428397238,398,0.05167335272,
397,102.0336609,397,-0.0003835191892,397,1.988087934E-005,397,0.00169710815,397,0.07537159324,397,0.0524446182,
396,102.0111542,396,-0.0003160520864,396,7.492045552E-005,396,0.001746746828,396,0.07650207728,396,0.05321544409,
395,102.0069962,395,-0.0001038544142,395,1.532476381E-005,395,0.001790204784,395,0.07759861648,395,0.05398388579,
394,102.0042267,394,-0.0002871804463,394,0.0001147158764,394,0.001739989384,394,0.07877206802,394,0.05471361056,
393,102.0140152,393,-0.000167962382,393,5.462282934E-005,393,0.001814222895,393,0.07981039584,393,0.05543544516,
392,101.9983521,392,-0.0002652760595,392,5.974892338E-005,392,0.001847184845,392,0.08098083735,392,0.05622306094,
391,101.9869461,391,-8.001195238E-005,391,2.863082409E-005,391,0.00190464058,391,0.08202256262,391,0.05699017644,
390,101.9947433,390,-0.0001920395298,390,0.0001007598767,390,0.001884569181,390,0.08313010633,390,0.0577600114,
389,101.9670486,389,-0.0001179460014,389,9.027375199E-005,389,0.001927052857,389,0.08426383138,389,0.05852641538,
388,101.9490585,388,-0.0002136609546,388,8.27394324E-005,388,0.001949258382,388,0.08538105339,388,0.05927859247,
387,101.960144,387,-7.236925012E-005,387,5.703053102E-005,387,0.002025868278,387,0.08660861105,387,0.06009438261,
386,101.9558182,386,-6.600376219E-005,386,0.0001362592302,386,0.002085038228,386,0.08782469481,386,0.06095283851,
385,101.9242249,385,-0.0004806116049,385,4.123830513E-005,385,0.002125746571,385,0.0889974162,385,0.06171866506,
384,101.9108734,384,-0.0002606565831,384,0.0001404281938,384,0.002221510978,384,0.09022311866,384,0.06263589859,
383,101.9013748,383,-0.0001736436825,383,5.384615361E-005,383,0.00223254296,383,0.09139630198,383,0.06352090836,
382,101.8861923,382,-6.847480108E-005,382,0.0001241150603,382,0.002204286866,382,0.092651546,382,0.06436813623,
381,101.8371964,381,-0.0002615808335,381,5.627974315E-005,381,0.002289451193,381,0.09389922023,381,0.06520561129,
380,101.8052902,380,-0.0003362261341,380,8.563922893E-005,380,0.0023075114,380,0.09522309154,380,0.06606519967,
379,101.8036575,379,-0.0002252955455,379,8.651952521E-005,379,0.002389390254,379,0.09651332349,379,0.06703700125,
378,101.774086,378,-0.0002218369918,378,6.98459553E-005,378,0.002360681305,378,0.09779118747,378,0.06785561889,
377,101.750267,377,-0.0002664449567,377,7.810498937E-005,377,0.002485525096,377,0.0990851745,377,0.06887366623,
376,101.7076035,376,-0.0002040076652,376,8.395630721E-005,376,0.002456940012,376,0.1004009023,376,0.06976684183,
375,101.6777191,375,-8.342866204E-005,375,3.940023089E-005,375,0.002502474003,375,0.1017652676,375,0.07070387155,
374,101.6482849,374,-0.0002585072361,374,1.263253671E-005,374,0.002553688828,374,0.1030087844,374,0.07161447406,
373,101.6250839,373,-0.0002974575327,373,6.33734744E-005,373,0.00259647239,373,0.1043472663,373,0.07248608768,
372,101.5863876,372,-0.0002000900422,372,5.770365533E-005,372,0.002613920486,372,0.1056767181,372,0.0734725967,
371,101.5541534,371,-0.0004521719238,371,7.062266377E-005,371,0.002738003386,371,0.1069280207,371,0.07438109815,
370,101.5325394,370,-0.0002605787013,370,5.027346197E-005,370,0.00269093411,370,0.1081368923,370,0.0752453655,
369,101.4992828,369,-0.0001598403323,369,3.417082189E-005,369,0.002737482311,369,0.1092977822,369,0.07602912933,
368,101.457283,368,-0.0002533210209,368,5.925702499E-005,368,0.002828040393,368,0.1106315777,368,0.07694815844,
367,101.412178,367,-0.000177756403,367,4.890134733E-005,367,0.002828587545,367,0.1120116934,367,0.07786784321,
366,101.3900375,366,-0.0003683751274,366,1.216642204E-006,366,0.002887267619,366,0.1133556813,366,0.07880949974,
365,101.3813477,365,-0.0002405651176,365,0.0001282580197,365,0.002958674217,365,0.1147184297,365,0.07983201742,
364,101.3472824,364,-0.0003259727091,364,8.51214063E-005,364,0.002990576439,364,0.1159251034,364,0.0806157887,
363,101.2900009,363,-0.0003892450768,363,0.0001247882901,363,0.002945903456,363,0.1170756817,363,0.08149137348,
362,101.2524338,362,-0.0001341484167,362,9.117995069E-005,362,0.003023158526,362,0.1182782203,362,0.08226084709,
361,101.2232056,361,-0.000215857377,361,8.957468526E-005,361,0.003000559285,361,0.1193947792,361,0.08298010379,
360,101.1796951,360,-0.0002950680791,360,7.481109151E-006,360,0.002988595515,360,0.1204202995,360,0.08381001651,
359,101.1440887,359,-0.0004801916366,359,0.0001197391102,359,0.003158388194,359,0.1217841581,359,0.08483819664,
358,101.0951538,358,-0.0001931279985,358,5.951591811E-005,358,0.003240505699,358,0.1231119633,358,0.08575375378,
357,101.0447006,357,-0.0003389020858,357,6.780063995E-005,357,0.003216252197,357,0.1245906949,357,0.08663060516,
356,100.9796982,356,-0.00038506274,356,-3.856838157E-005,356,0.003177840495,356,0.1260215938,356,0.08777396381,
355,100.9332809,355,-0.0002748381812,355,0.0001097185886,355,0.003260039957,355,0.1276680827,355,0.08876270801,
354,100.8761139,354,-0.0005036687362,354,9.099871386E-005,354,0.003359628841,354,0.1293803453,354,0.090033032,
353,100.805954,353,-0.0003250250302,353,0.0001013294968,353,0.00339184748,353,0.1308771074,353,0.09116502106,
352,100.7611008,352,-0.0002750967978,352,6.860323629E-005,352,0.00338057708,352,0.1325671822,352,0.09230618179,
351,100.7008896,351,-0.0005845542182,351,0.0001996784849,351,0.003502374049,351,0.1342474371,351,0.09354072064,
350,100.6457214,350,-0.0001867306419,350,5.555483949E-005,350,0.003513491014,350,0.1359557956,350,0.09477742761,
349,100.8646851,349,-0.0007504457608,349,3.300586468E-005,349,0.003502008738,349,0.1280191988,349,0.08937943727,
348,100.8274078,348,-0.0005017686053,348,0.0002270015975,348,0.00343205221,348,0.1298145801,348,0.09042858332,
347,100.7531509,347,-0.0001218473262,347,-0.0001418319443,347,0.003034680383,347,0.1311393678,347,0.09141135216,
346,100.7092133,346,2.697610216E-005,346,-0.0001088109784,346,0.003398134839,346,0.1329577267,346,0.09296124429,
345,100.6836548,345,-5.936999514E-006,345,-4.322741734E-005,345,0.003217034508,345,0.134448126,345,0.09352973849,
344,100.6829224,344,-0.0002290992416,344,-0.0001929111604,344,0.003441288602,344,0.1357056499,344,0.09474171698,
343,100.6419907,343,-0.00027101452,343,-5.968894038E-005,343,0.003557282733,343,0.1373631209,343,0.0959212184,
342,100.6170883,342,-0.0004841363989,342,1.760281521E-005,342,0.003512942931,342,0.139004007,342,0.09701091051,
341,100.5966797,341,-0.000322789012,341,3.308352825E-005,341,0.00343048689,341,0.1405535787,341,0.09834256768,
340,100.5845337,340,-2.726029015E-005,340,0.0001158810555,340,0.00373374694,340,0.1425843686,340,0.09970296919,
339,100.5870667,339,2.900752952E-005,339,-0.0001062747833,339,0.003396021668,339,0.1433010697,339,0.1004295796,
338,100.5576477,338,-0.0006765903672,338,-0.0001354142732,338,0.003439201275,338,0.1453533173,338,0.1018017828,
337,100.5583878,337,-0.0003570902336,337,7.357415598E-005,337,0.003551593283,337,0.1475022882,337,0.103413187,
336,100.5829773,336,-0.0002113316732,336,0.0001815244614,336,0.003609039821,336,0.1498542577,336,0.1049744785,
335,100.5900955,335,-0.0002452568151,335,0.0002347974223,335,0.003743590321,335,0.1523252875,335,0.1069366336,
334,100.541893,334,-0.0003994285944,334,-3.675651897E-005,334,0.003581346478,334,0.1546724588,334,0.1086212546,
333,100.5336761,333,-0.0004052596923,333,-6.367901733E-006,333,0.003647881327,333,0.157446906,333,0.1107330173,
332,100.5283356,332,-0.0002632938849,332,1.483291271E-005,332,0.003618828254,332,0.1605946124,332,0.1130858362,
331,100.5225449,331,-0.0002907808812,331,-3.908605504E-005,331,0.003664066317,331,0.1636450589,331,0.1155023277,
330,100.5611191,330,-0.0002983242157,330,4.196318332E-005,330,0.003883301513,330,0.1672844589,330,0.1178480983,
329,100.5948792,329,-0.0005701112677,329,6.994952128E-005,329,0.004137143027,329,0.1708205342,329,0.1206199303,
328,100.5521545,328,-0.0003027009079,328,7.33152483E-005,328,0.004002548754,328,0.1736803055,328,0.1226390153,
327,100.5609055,327,-0.0001547433931,327,-5.404653712E-005,327,0.004219236784,327,0.1763541251,327,0.1245286539,
326,100.5858459,326,-0.0001264569437,326,-8.076346603E-006,326,0.004169889726,326,0.1786540449,326,0.1264631301,
325,100.5901489,325,-0.000234564679,325,-0.0001328264771,325,0.00410084473,325,0.1805995405,325,0.1278856695,
324,100.585701,324,-0.0002058642131,324,3.823525913E-005,324,0.004247859586,324,0.1822250336,324,0.1292847097,
323,100.5904236,323,-0.0002082982101,323,0.0001172015909,323,0.00410332717,323,0.1838924736,323,0.1304524094,
322,100.607048,322,-0.0003715649364,322,0.0002669404785,322,0.004146263469,322,0.185783565,322,0.1317677796,
321,100.5873947,321,-0.0001144024282,321,-0.0001479907514,321,0.003892051289,321,0.1876884699,321,0.1331817359,
320,100.5979156,320,-0.0004016452876,320,-4.410745169E-005,320,0.003883144818,320,0.1898427308,320,0.1348413676,
319,100.5914688,319,-0.0002298129111,319,-4.9491151E-005,319,0.003932746593,319,0.1923410743,319,0.1367066652,
318,100.6046295,318,-0.0002990011417,318,0.0001850464323,318,0.004069017712,318,0.1950865686,318,0.1388992816,
317,100.5615234,317,-0.0004263733863,317,3.367894897E-005,317,0.004022378474,317,0.198255077,317,0.1411790401,
316,100.6035538,316,-0.0001471413707,316,5.542539657E-005,316,0.004088458605,316,0.2015449554,316,0.1436812431,
315,100.6217117,315,-0.0003238167847,315,5.731531564E-005,315,0.004123762716,315,0.2049688399,315,0.1463673115,
314,100.5991592,314,-0.0004608013551,314,1.42116287E-005,314,0.004082161002,314,0.208499074,314,0.1491131186,
313,100.576828,313,-0.0004400841135,313,-1.698086271E-005,313,0.004156194627,313,0.2119731307,313,0.1517046839,
312,100.5732269,312,-0.0005443466362,312,3.088305675E-005,312,0.004173156805,312,0.2158210129,312,0.1547676474,
311,100.6057968,311,-0.0001744756155,311,0.0001467464608,311,0.004267256241,311,0.2199275494,311,0.157968834,
310,100.5923386,310,-0.0005473418278,310,-2.065651097E-005,310,0.004198483191,310,0.2241286635,310,0.1611991972,
309,100.5668793,309,-0.000388012355,309,-2.821478847E-005,309,0.004351466428,309,0.2286280096,309,0.1649536192,
308,100.5742798,308,-0.0003658037458,308,0.0002560100111,308,0.00438263407,308,0.2340127975,308,0.1690510362,
307,100.5426407,307,-0.000459890638,307,9.599577606E-005,307,0.004581879359,307,0.2392581701,307,0.1732423007,
306,100.5084763,306,-0.0002609616786,306,0.0001164248024,306,0.004632241093,306,0.2444642037,306,0.1776172221,
305,100.4855652,305,-0.0003512528201,305,2.019110298E-006,305,0.004694645759,305,0.2494398206,305,0.1816487908,
304,100.4969482,304,-0.0001278785785,304,-0.0001085521872,304,0.004847594537,304,0.2542483211,304,0.1856326759,
303,100.530838,303,-0.0002445181599,303,2.707756721E-005,303,0.005432667211,303,0.2586219311,303,0.1893194616,
302,100.5563049,302,-0.0002315256279,302,1.641201379E-005,302,0.005855013616,302,0.2620283961,302,0.1923164874,
301,100.6453247,301,-0.0004753509129,301,7.455222658E-006,301,0.006253058556,301,0.2650869787,301,0.1950035393,
300,100.8379593,300,-0.000239945366,300,-0.0001187485832,300,0.006817888003,300,0.2674527168,300,0.1972965598,
299,101.1959991,299,-0.0001268039341,299,4.517336492E-005,299,0.007811206859,299,0.2692920864,299,0.1993243098,
298,101.7693253,298,-0.0004034556332,298,0.0001929968857,298,0.009186940268,298,0.2704904079,298,0.2010343075,
297,102.6721725,297,-0.0002215951827,297,8.592403174E-005,297,0.01065445039,297,0.2707146704,297,0.2019299716,
296,104.1810837,296,-0.0002630747331,296,0.0002288404648,296,0.0127047915,296,0.2690382004,296,0.2018481344,
295,106.6020966,295,-0.0004467508406,295,0.0003830223286,295,0.01462353021,295,0.2637028992,295,0.199260205,
294,110.289856,294,-0.000706562656,294,0.0005074024084,294,0.01586516201,294,0.2521573305,294,0.1923244596,
293,115.7933578,293,-0.0008169204229,293,0.000829868135,293,0.01612575725,293,0.2320691049,293,0.179370746,
292,123.5385895,292,-0.0009257250931,292,0.0009711617022,292,0.01521986723,292,0.200266704,292,0.1572173387,
291,133.6452179,291,-0.001041181269,291,0.001252355054,291,0.01300587691,291,0.1578913778,291,0.1265146583,
290,145.0932617,290,-0.0006952570984,290,0.001492921845,290,0.009940958582,290,0.1095044911,290,0.09004860371,
289,155.2303772,289,-0.0006373245269,289,0.00153565302,289,0.006865669508,289,0.06525307894,289,0.05517112464,
288,161.8686981,288,-0.0003604017256,288,0.002193905879,288,0.004046912305,288,0.03513849527,288,0.03135241196,
287,165.0930939,287,-0.0003905270714,287,0.001904380508,287,0.002475059358,287,0.01821387,287,0.01743622869,
286,166.3298645,286,-0.0003163428337,286,0.002172546461,286,0.001516040298,286,0.01099688746,286,0.01163670421,
285,166.696228,285,-6.439429126E-005,285,0.001850460423,285,0.001258378034,285,0.008424649015,285,0.009361501783,
284,166.7764893,284,-4.929156421E-005,284,0.002186387079,284,0.001157193445,284,0.007215658668,284,0.008361046202,
283,166.8278809,283,0.0001560082892,283,0.002008079784,283,0.001147979521,283,0.007401857525,283,0.008398863487,
282,166.8567963,282,-2.580222827E-005,282,0.002128217835,282,0.001267542364,282,0.006947649643,282,0.008275606669,
281,166.978241,281,0.0002633047698,281,0.002295878949,281,0.001232495531,281,0.007389508653,281,0.008589557372,
280,166.9686584,280,-0.0002142247395,280,0.001818407909,280,0.001313367044,280,0.006568309851,280,0.007911502384,
279,166.9025574,279,-1.528782923E-005,279,0.00220046239,279,0.001198308193,279,0.006370068993,279,0.007967656478,
278,166.8925476,278,8.418237485E-006,278,0.001989563927,278,0.001407186501,278,0.006723970175,278,0.008015380241,
277,166.6932526,277,0.0001077799534,277,0.002214329783,277,0.001632092753,277,0.00671411166,277,0.008021102287,
276,166.3885651,276,0.0001696482359,276,0.00208667689,276,0.001754336059,276,0.007122497074,276,0.008606560528,
275,165.769577,275,-6.62747625E-005,275,0.001798704499,275,0.002414248418,275,0.007492208388,275,0.008860932663,
274,165.2230835,274,6.82889804E-005,274,0.002091748873,274,0.003395212814,274,0.0092874486,274,0.01064606663,
273,164.3134308,273,-0.0001560594101,273,0.001813443028,273,0.005234105512,273,0.01044441853,273,0.01196302008,
272,163.2888947,272,-0.0001483292435,272,0.002163233003,272,0.008105489425,272,0.01286690682,272,0.01441566553,
271,162.0348969,271,0.0001317743736,271,0.001914156484,271,0.01179584116,271,0.01602072641,271,0.01763408817,
270,160.3860931,270,-0.0001143819682,270,0.002027922776,270,0.01625615358,270,0.01946027391,270,0.02111048251,
269,158.2988434,269,-0.0001268172346,269,0.002040614374,269,0.02108344436,269,0.02434390783,269,0.02599063329,
268,155.7971649,268,-8.820818039E-005,268,0.001939325593,268,0.027326243,268,0.03002898581,268,0.03162756562,
267,152.8344421,267,0.000113906659,267,0.001923724776,267,0.03420348093,267,0.03758530319,267,0.03933808953,
266,149.544693,266,8.558725676E-005,266,0.001508169458,266,0.04321524873,266,0.04644978419,266,0.04822284728,
265,146.0920715,265,1.706220064E-005,265,0.001466843649,265,0.05421249196,265,0.05717111751,265,0.05880618095,
264,142.6151276,264,-4.635948699E-006,264,0.001198775484,264,0.06608252972,264,0.06929130107,264,0.07087065279,
263,139.2967987,263,-5.22227383E-005,263,0.00118751009,263,0.07966645807,263,0.0824431181,263,0.0840369463,
262,136.0319214,262,0.000149795902,262,0.001255003037,262,0.09329250455,262,0.0965969637,262,0.09825920314,
261,132.8531647,261,-5.883094673E-006,261,0.001241192105,261,0.1083074659,261,0.1110631377,261,0.1125769839,
260,129.8961487,260,-0.0001968121069,260,0.001278550248,260,0.1230426431,260,0.1264255792,260,0.1278899759,
259,127.1249924,259,3.016799565E-005,259,0.0009520155145,259,0.1387057453,259,0.1418784708,259,0.1432986259,
258,124.5037766,258,1.863671241E-005,258,0.001117042964,258,0.154716149,258,0.157974273,258,0.1596045941,
257,122.3097,257,-0.0001891441207,257,0.0008162262966,257,0.1695519984,257,0.1733801514,257,0.174865976,
256,120.5521698,256,-0.0001997212239,256,0.0007991875755,256,0.1843613982,256,0.1879383475,256,0.18952474,
255,119.1269302,255,-0.0002297417959,255,0.0007934303139,255,0.1975270361,255,0.2016772628,255,0.2031974345,
254,117.9568329,254,-0.0001925008692,254,0.0006930541131,254,0.2098809779,254,0.2135596275,254,0.2151456922,
253,117.0512085,253,-0.000176268848,253,0.0006504576304,253,0.2194923162,253,0.2237448692,253,0.2253076732,
252,116.4389114,252,-0.000279549713,252,0.0007365363999,252,0.2267562896,252,0.2315923274,252,0.2333922535,
251,115.9953461,251,-0.0004373765551,251,0.0005789630231,251,0.231666103,251,0.2376673073,251,0.2393545508,
250,115.8400803,250,-0.0003042634344,250,0.0006020587753,250,0.2348341793,250,0.2422772795,250,0.243839547,
249,115.8792114,249,-0.0004799555754,249,0.0005788333947,249,0.2374261171,249,0.2447202951,249,0.246245563,
248,116.135231,248,-0.0004313432437,248,0.0006553055719,248,0.2370399982,248,0.2457517385,248,0.2472622544,
247,116.8825607,247,-0.0002660058381,247,0.0006588054821,247,0.2329664677,247,0.2436017543,247,0.2451706529,
246,118.2966232,246,-0.000324899418,246,0.000689450244,246,0.223898679,246,0.2375457138,246,0.2391481549,
245,120.678009,245,-0.0003539060708,245,0.0008958789986,245,0.2106466442,245,0.2262265533,245,0.2278808355,
244,124.1321182,244,-0.0005063820281,244,0.0008758542244,244,0.1930724084,244,0.2086166441,244,0.2101448476,
243,129.0039368,243,-0.0003244162071,243,0.001170897973,243,0.1704865694,243,0.1855230182,243,0.1869949102,
242,135.3213501,242,-0.0005316011957,242,0.001270424109,242,0.1402707845,242,0.1537185162,242,0.155400157,
241,142.8578033,241,-0.0004689407942,241,0.001463804743,241,0.1044136956,241,0.1170834377,241,0.1185537204,
240,150.7814636,240,-0.0003893651301,240,0.001650931197,240,0.07058423012,240,0.08011446148,240,0.08186838031,
239,157.2349243,239,-0.0004312660312,239,0.001690741279,239,0.03953161091,239,0.04574340954,239,0.04750694335,
238,161.1162415,238,-0.00044586492,238,0.001917172573,238,0.01867053658,238,0.02177112736,238,0.02358044684,
237,162.464386,237,-2.185396625E-005,237,0.001946372096,237,0.007164075505,237,0.008440986276,237,0.01029359456,
236,162.6278381,236,-0.0003745080612,236,0.002316307509,236,0.002545304596,236,0.003378777066,236,0.005061823409,
235,162.3356476,235,-0.0001494884054,235,0.002011148492,235,0.001151457429,235,0.001309056999,235,0.003205690533,
234,161.7474365,234,1.484037421E-005,234,0.001808322151,234,0.0005516177625,234,0.0007551804301,234,0.002602696419,
233,161.1572113,233,-0.0001373599953,233,0.002206784673,233,0.00069300225,233,0.0009388627368,233,0.002761162119,
232,160.5282898,232,-0.0001915339963,232,0.001853995956,232,0.0003323476412,232,0.0006324143615,232,0.002277532825,
231,160.3564758,231,-0.0003843067971,231,0.002215526765,231,0.0006219413481,231,0.0007554137846,231,0.002708359854,
230,159.8720551,230,-8.191209054E-005,230,0.001972349128,230,0.0006248706486,230,0.0005291207344,230,0.002374319825,
229,159.4143524,229,-0.0002941729035,229,0.002086885041,229,0.0005841989769,229,0.0008061378612,229,0.002579025226,
228,158.8693695,228,-5.851538299E-005,228,0.002058196114,228,0.0005764746456,228,0.0006838759291,228,0.002477766946,
227,158.2360535,227,-0.0005667955265,227,0.001899232622,227,0.0004978912766,227,0.000628862821,227,0.002424087841,
226,157.7546997,226,-0.0003008281637,226,0.002179935109,226,0.0007324913749,226,0.001046587247,226,0.00288791908,
225,157.0393677,225,-0.0001654392108,225,0.001976509811,225,0.0005571385263,225,0.0009037127602,225,0.002516064793,
224,156.3962708,224,-0.0004655483644,224,0.00214000186,224,0.0006377028185,224,0.001038179966,224,0.002953696065,
223,155.5963135,223,-0.0003437326814,223,0.001929939026,223,0.000655098178,223,0.0009312098846,223,0.002739019226,
222,154.7597961,222,-0.0002514299413,222,0.002095884643,222,0.0004657570389,222,0.001090909354,222,0.002924194327,
221,153.9861755,221,-1.839897232E-005,221,0.002145100618,221,0.0009290826856,221,0.001563190133,221,0.003212053562,
220,152.928421,220,-0.0004262450093,220,0.002060823143,220,0.0005750490236,220,0.001253782888,220,0.003123970702,
219,151.9453125,219,-7.516392361E-005,219,0.002284168499,219,0.000742059492,219,0.001765070367,219,0.003578788601,
218,150.8344269,218,-0.0002024616551,218,0.001850330504,218,0.0006809980841,218,0.001475337078,218,0.003313587513,
217,150.0138245,217,-0.0006624627276,217,0.002495027846,217,0.0008890310419,217,0.002180507407,217,0.00381255243,
216,149.171814,216,-0.0002141646255,216,0.002057909966,216,0.0009613809525,216,0.002230799757,216,0.00402399851,
215,148.4626617,215,1.289390457E-005,215,0.002265823074,215,0.0006926652277,215,0.00238876557,215,0.004044143017,
214,147.9771118,214,-0.0001706688927,214,0.002057103673,214,0.0009550508112,214,0.002802455099,214,0.00459435815,
213,147.4259186,213,-0.0007135364576,213,0.001963326009,213,0.0005575531977,213,0.002750220941,213,0.004527573474,
212,147.1000977,212,-0.0002040311083,212,0.002188624581,212,0.0008845435805,212,0.003448203206,212,0.005275058094,
211,146.7823334,211,-0.0005414816551,211,0.001912362524,211,0.001007744111,211,0.003928567283,211,0.005514796358,
210,146.4100037,210,-0.0004935230827,210,0.002407584572,210,0.001096047694,210,0.004208520055,210,0.00618701661,
209,145.7728119,209,-0.0001557619253,209,0.002149237087,209,0.00120817218,209,0.004732092842,209,0.006448198576,
208,144.913559,208,-0.0006974888383,208,0.001923412783,208,0.0009706428391,208,0.005067506805,208,0.006532385945,
207,144.0269928,207,-0.0003646640689,207,0.002130351029,207,0.001125555485,207,0.005624894518,207,0.007508458104,
206,142.7664185,206,-0.0002696566517,206,0.001847002888,206,0.001017681672,206,0.00544532761,206,0.00701543875,
205,141.6193848,205,-0.0004186302249,205,0.002255596919,205,0.001318456139,205,0.0060439636,205,0.007830552757,
204,140.2761841,204,-0.0007827911759,204,0.00195328868,204,0.001444325084,204,0.006176461,204,0.008101612329,
203,138.9894867,203,-0.0004051601863,203,0.00225400948,203,0.001698173699,203,0.007506904192,203,0.009118494578,
202,136.9691162,202,-0.0005175021943,202,0.002222811803,202,0.001843701466,202,0.008972305804,202,0.01019256283,
201,134.8170624,201,-0.0005127713666,201,0.002248753328,201,0.002298793523,201,0.01006699447,201,0.01150489599,
200,133.7099304,200,-0.0008138437988,200,0.002735215938,200,0.003092866857,200,0.01182132401,200,0.01344759203,
199,130.0958252,,,,,,,,,,,

Baseline 100%T,
Baseline 100%T
Collection Time: 2024-01-24 1:21:39 PM
Operator Name  :
Scan Version 6.4.0.1610
Parameter List :
Instrument  Cary 7000
Instrument Version  3.07
Method Log     :
Method Name    :
Date/Time stamp: 2024-01-24 1:19:40 PM
Method Modifications:
ConcentrationReportSelected Changed: 2024-01-24 1:19:41 PM, Old:Choice 0, New:Choice 1
ConcentrationReportSelected Changed: 2024-01-24 1:19:41 PM, Old:ON, New:Choice 0
MCAReportSelected Changed: 2024-01-24 1:19:41 PM, Old:Choice 0, New:Choice 1
MCAReportSelected Changed: 2024-01-24 1:19:41 PM, Old:ON, New:Choice 0
UVVIS Scan Rate nm Changed: 2024-01-24 1:20:57 PM, Old:  602.007, New:  600.000
NIR Scan Rate nm Changed: 2024-01-24 1:20:57 PM, Old:    0.004, New:   12.000
Baseline Correction Changed: 2024-01-24 1:20:57 PM, Old:0, New:2
Sipper Type Changed: 2024-01-24 1:20:57 PM, Old:Internal RSA, New:External sipper
End Method Modifications
<Current Wavelength> , 199.000
<SBW (nm)> , 2.00
<Energy> , 95.50
<Slit Height> , Full

Baseline 0%T,
Baseline 0%T
Collection Time: 2024-01-24 1:23:25 PM
Operator Name  :
Scan Version 6.4.0.1610
Parameter List :
Instrument  Cary 7000
Instrument Version  3.07
Method Log     :
Method Name    :
Date/Time stamp: 2024-01-24 1:19:40 PM
Method Modifications:
ConcentrationReportSelected Changed: 2024-01-24 1:19:41 PM, Old:Choice 0, New:Choice 1
ConcentrationReportSelected Changed: 2024-01-24 1:19:41 PM, Old:ON, New:Choice 0
MCAReportSelected Changed: 2024-01-24 1:19:41 PM, Old:Choice 0, New:Choice 1
MCAReportSelected Changed: 2024-01-24 1:19:41 PM, Old:ON, New:Choice 0
UVVIS Scan Rate nm Changed: 2024-01-24 1:20:57 PM, Old:  602.007, New:  600.000
NIR Scan Rate nm Changed: 2024-01-24 1:20:57 PM, Old:    0.004, New:   12.000
Baseline Correction Changed: 2024-01-24 1:20:57 PM, Old:0, New:2
Sipper Type Changed: 2024-01-24 1:20:57 PM, Old:Internal RSA, New:External sipper
End Method Modifications
<Current Wavelength> , 200.000
<SBW (nm)> , 2.00
<Energy> , 104.71
<Slit Height> , Full

thf_blank,
thf_blank
Collection Time: 2024-01-24 1:25:30 PM
Operator Name  :
Scan Version 6.4.0.1610
Parameter List :
Instrument  Cary 7000
Instrument Version  3.07
Method Log     :
Method Name    :
Date/Time stamp: 2024-01-24 1:19:40 PM
Method Modifications:
ConcentrationReportSelected Changed: 2024-01-24 1:19:41 PM, Old:Choice 0, New:Choice 1
ConcentrationReportSelected Changed: 2024-01-24 1:19:41 PM, Old:ON, New:Choice 0
MCAReportSelected Changed: 2024-01-24 1:19:41 PM, Old:Choice 0, New:Choice 1
MCAReportSelected Changed: 2024-01-24 1:19:41 PM, Old:ON, New:Choice 0
UVVIS Scan Rate nm Changed: 2024-01-24 1:20:57 PM, Old:  602.007, New:  600.000
NIR Scan Rate nm Changed: 2024-01-24 1:20:57 PM, Old:    0.004, New:   12.000
Baseline Correction Changed: 2024-01-24 1:20:57 PM, Old:0, New:2
Sipper Type Changed: 2024-01-24 1:20:57 PM, Old:Internal RSA, New:External sipper
End Method Modifications
<Current Wavelength> , 200.000
<SBW (nm)> , 2.00
<Energy> , 87.10
<Slit Height> , Full

001G_1mg_ml,
001G_1mg_ml
Collection Time: 2024-01-24 1:27:52 PM
Operator Name  :
Scan Version 6.4.0.1610
Parameter List :
Instrument  Cary 7000
Instrument Version  3.07
Method Log     :
Method Name    :
Date/Time stamp: 2024-01-24 1:19:40 PM
Method Modifications:
ConcentrationReportSelected Changed: 2024-01-24 1:19:41 PM, Old:Choice 0, New:Choice 1
ConcentrationReportSelected Changed: 2024-01-24 1:19:41 PM, Old:ON, New:Choice 0
MCAReportSelected Changed: 2024-01-24 1:19:41 PM, Old:Choice 0, New:Choice 1
MCAReportSelected Changed: 2024-01-24 1:19:41 PM, Old:ON, New:Choice 0
UVVIS Scan Rate nm Changed: 2024-01-24 1:20:57 PM, Old:  602.007, New:  600.000
NIR Scan Rate nm Changed: 2024-01-24 1:20:57 PM, Old:    0.004, New:   12.000
Baseline Correction Changed: 2024-01-24 1:20:57 PM, Old:0, New:2
Sipper Type Changed: 2024-01-24 1:20:57 PM, Old:Internal RSA, New:External sipper
End Method Modifications
<Current Wavelength> , 199.000
<SBW (nm)> , 2.00
<Energy> , 87.10
<Slit Height> , Full

005P_1mg_ml,
005P_1mg_ml
Collection Time: 2024-01-24 1:31:22 PM
Operator Name  :
Scan Version 6.4.0.1610
Parameter List :
Instrument  Cary 7000
Instrument Version  3.07
Method Log     :
Method Name    :
Date/Time stamp: 2024-01-24 1:19:40 PM
Method Modifications:
ConcentrationReportSelected Changed: 2024-01-24 1:19:41 PM, Old:Choice 0, New:Choice 1
ConcentrationReportSelected Changed: 2024-01-24 1:19:41 PM, Old:ON, New:Choice 0
MCAReportSelected Changed: 2024-01-24 1:19:41 PM, Old:Choice 0, New:Choice 1
MCAReportSelected Changed: 2024-01-24 1:19:41 PM, Old:ON, New:Choice 0
UVVIS Scan Rate nm Changed: 2024-01-24 1:20:57 PM, Old:  602.007, New:  600.000
NIR Scan Rate nm Changed: 2024-01-24 1:20:57 PM, Old:    0.004, New:   12.000
Baseline Correction Changed: 2024-01-24 1:20:57 PM, Old:0, New:2
Sipper Type Changed: 2024-01-24 1:20:57 PM, Old:Internal RSA, New:External sipper
End Method Modifications
<Current Wavelength> , 199.000
<SBW (nm)> , 2.00
<Energy> , 87.10
<Slit Height> , Full

005P_0.6mg_ml,
005P_0.6mg_ml
Collection Time: 2024-01-24 1:33:11 PM
Operator Name  :
Scan Version 6.4.0.1610
Parameter List :
Instrument  Cary 7000
Instrument Version  3.07
Method Log     :
Method Name    :
Date/Time stamp: 2024-01-24 1:19:40 PM
Method Modifications:
ConcentrationReportSelected Changed: 2024-01-24 1:19:41 PM, Old:Choice 0, New:Choice 1
ConcentrationReportSelected Changed: 2024-01-24 1:19:41 PM, Old:ON, New:Choice 0
MCAReportSelected Changed: 2024-01-24 1:19:41 PM, Old:Choice 0, New:Choice 1
MCAReportSelected Changed: 2024-01-24 1:19:41 PM, Old:ON, New:Choice 0
UVVIS Scan Rate nm Changed: 2024-01-24 1:20:57 PM, Old:  602.007, New:  600.000
NIR Scan Rate nm Changed: 2024-01-24 1:20:57 PM, Old:    0.004, New:   12.000
Baseline Correction Changed: 2024-01-24 1:20:57 PM, Old:0, New:2
Sipper Type Changed: 2024-01-24 1:20:57 PM, Old:Internal RSA, New:External sipper
End Method Modifications
<Current Wavelength> , 200.000
<SBW (nm)> , 2.00
<Energy> , 87.10
<Slit Height> , Full

